"Time (s)","Linear Acceleration x (m/s^2)","Linear Acceleration y (m/s^2)","Linear Acceleration z (m/s^2)"
2.998712100E-2,-3.968565702E0,3.651096821E-1,1.652523041E0
3.998712100E-2,-3.917789698E0,4.137530327E-1,1.626848698E0
4.998712100E-2,-3.881343603E0,4.767608643E-1,1.546096325E0
5.998712100E-2,-3.894097090E0,5.628712177E-1,1.501481056E0
6.998712100E-2,-3.905637980E0,6.151323318E-1,1.562703609E0
7.998712100E-2,-3.929737806E0,6.648411751E-1,1.635968685E0
8.998712100E-2,-3.993057966E0,7.529611588E-1,1.587010384E0
9.998712100E-2,-4.070475578E0,7.727050781E-1,1.554310799E0
1.099871210E-1,-4.011033535E0,7.426924706E-1,1.523734093E0
1.199871210E-1,-3.935873508E0,7.582433224E-1,1.512234211E0
1.299871210E-1,-3.887226582E0,8.383727074E-1,1.434868336E0
1.399871210E-1,-3.849980354E0,9.444510937E-1,1.304934502E0
1.499871210E-1,-3.802144766E0,1.078897953E0,1.163434982E0
1.599871210E-1,-3.797341108E0,1.198751211E0,1.029962063E0
1.699871210E-1,-3.874985456E0,1.227039814E0,8.902168274E-1
1.799871210E-1,-3.968420982E0,1.199041367E0,7.766561508E-1
1.899871210E-1,-4.025418282E0,1.192283630E0,6.292853355E-1
1.999871210E-1,-4.080028534E0,1.192548513E0,4.758973122E-1
2.099871210E-1,-4.152918816E0,1.154064178E0,2.542085648E-1
2.199871210E-1,-4.243018150E0,1.105544806E0,4.732275009E-2
2.299871210E-1,-4.341023445E0,1.035370111E0,-1.614317894E-1
2.399871210E-1,-4.420531273E0,8.825521469E-1,-3.843793869E-1
2.499871210E-1,-4.511480331E0,7.574062347E-1,-5.369291306E-1
2.599871210E-1,-4.600580215E0,6.606526375E-1,-6.348652840E-1
2.699871210E-1,-4.697900295E0,5.600674152E-1,-7.073922157E-1
2.799871210E-1,-4.795609474E0,4.448304176E-1,-7.469859123E-1
2.899871210E-1,-4.892302036E0,2.967190742E-1,-7.791233063E-1
2.999871210E-1,-4.995733261E0,1.299312115E-1,-8.066754341E-1
3.099871210E-1,-5.092449665E0,-6.270647049E-2,-8.334336281E-1
3.199871210E-1,-5.207109451E0,-2.091481686E-1,-8.567104340E-1
3.299871210E-1,-5.339788437E0,-3.770639896E-1,-9.219908714E-1
3.399871210E-1,-5.462324142E0,-5.334658623E-1,-9.542245865E-1
3.499871210E-1,-5.551402092E0,-7.284326553E-1,-9.613182545E-1
3.599871210E-1,-5.626041412E0,-9.433400631E-1,-8.524487019E-1
3.699871210E-1,-5.663019180E0,-1.171118140E0,-5.877830982E-1
3.799871210E-1,-5.658838749E0,-1.412678003E0,-2.335202694E-1
3.899871210E-1,-5.617730141E0,-1.661627889E0,1.615560055E-1
3.999871210E-1,-5.620168209E0,-1.897477388E0,5.481972694E-1
4.099871210E-1,-5.603321075E0,-2.184896231E0,8.323855400E-1
4.199871210E-1,-5.577228546E0,-2.486985207E0,1.084388971E0
4.299871210E-1,-5.558903694E0,-2.812759876E0,1.308716774E0
4.399871210E-1,-5.517576218E0,-3.067332268E0,1.567012310E0
4.499871210E-1,-5.310548306E0,-3.361490726E0,1.820605278E0
4.599871210E-1,-5.034764290E0,-3.624322891E0,2.095925808E0
4.699871210E-1,-4.620017052E0,-3.876988888E0,2.356694698E0
4.799871210E-1,-4.081058025E0,-4.120578289E0,2.588521004E0
4.899870210E-1,-3.477027893E0,-4.390500069E0,2.812884569E0
4.999870210E-1,-3.068433762E0,-4.730863094E0,2.974895000E0
5.099870210E-1,-2.789910793E0,-5.044574261E0,3.073157310E0
5.199870210E-1,-2.539750576E0,-5.275972366E0,3.160840750E0
5.299870210E-1,-2.305792809E0,-5.511781693E0,3.287516117E0
5.399870210E-1,-2.031281948E0,-5.726654530E0,3.475329638E0
5.499870210E-1,-1.623664856E0,-5.952595711E0,3.799967766E0
5.599870210E-1,-1.119626999E0,-6.126633644E0,4.185146332E0
5.699870210E-1,-4.194736481E-1,-6.204720497E0,4.669945717E0
5.799870210E-1,3.233022690E-1,-6.250872612E0,5.121048450E0
5.899870210E-1,1.158605576E0,-6.289061069E0,5.542732239E0
5.999870210E-1,1.977029800E0,-6.229290485E0,5.919003963E0
6.099870210E-1,2.795009613E0,-6.127442837E0,6.228680134E0
6.199870210E-1,3.546068192E0,-6.069583893E0,6.500418663E0
6.299870210E-1,4.216766357E0,-6.011830807E0,6.734025002E0
6.399870210E-1,4.773313522E0,-5.922283649E0,6.918815613E0
6.499870210E-1,5.225586891E0,-5.811801910E0,7.032459736E0
6.599870210E-1,5.586641312E0,-5.674253941E0,7.110448360E0
6.699870210E-1,5.864935875E0,-5.508521557E0,7.150344849E0
6.799870210E-1,6.099942684E0,-5.343738079E0,7.176263809E0
6.899870210E-1,6.299871922E0,-5.184020519E0,7.224739552E0
6.999870210E-1,6.479858398E0,-5.062097073E0,7.273804665E0
7.099870210E-1,6.669213772E0,-4.997043133E0,7.331060410E0
7.199870210E-1,6.881054401E0,-4.982691765E0,7.395146370E0
7.299870210E-1,7.088518143E0,-5.023673058E0,7.474910736E0
7.399870210E-1,7.276387215E0,-5.071784973E0,7.580619812E0
7.499870210E-1,7.433735371E0,-5.076380730E0,7.750568390E0
7.599870210E-1,7.645378113E0,-5.026978493E0,7.987001896E0
7.699870210E-1,7.949038506E0,-4.853931427E0,8.326557159E0
7.799870210E-1,8.263786316E0,-4.611247063E0,8.720252037E0
7.899871210E-1,8.551942825E0,-4.252985477E0,9.132524490E0
7.999871210E-1,8.706457138E0,-3.869812965E0,9.465803146E0
8.099871210E-1,8.587940216E0,-3.412158489E0,9.680515289E0
8.199871210E-1,8.328406334E0,-3.012043476E0,9.775006294E0
8.299871210E-1,7.923039436E0,-2.566864967E0,9.759924889E0
8.399871210E-1,7.470935822E0,-2.066938400E0,9.665252686E0
8.499871210E-1,6.983905315E0,-1.534039974E0,9.468186378E0
8.599871210E-1,6.546467304E0,-9.961814880E-1,9.213821411E0
8.699871210E-1,6.173810482E0,-3.790216446E-1,8.881248474E0
8.799871210E-1,5.883439064E0,2.312121391E-1,8.551132202E0
8.899871210E-1,5.672759056E0,8.683609962E-1,8.213960648E0
8.999871210E-1,5.516687393E0,1.458094597E0,7.920630455E0
9.099871210E-1,5.394693375E0,2.009835720E0,7.667499542E0
9.199871210E-1,5.299474239E0,2.482424736E0,7.461285591E0
9.299871210E-1,5.234580040E0,2.899381638E0,7.287043095E0
9.399871210E-1,5.186386108E0,3.234915257E0,7.137164116E0
9.499871210E-1,5.126297951E0,3.476858377E0,7.015424728E0
9.599871210E-1,5.038266659E0,3.686806202E0,6.914449215E0
9.699871210E-1,4.928411007E0,3.849238634E0,6.800189972E0
9.799871210E-1,4.869124413E0,3.969436884E0,6.662869453E0
9.899871210E-1,4.860599518E0,4.090698242E0,6.484662533E0
9.999871210E-1,4.880530357E0,4.215775967E0,6.293831348E0
1.009987121E0,4.897287369E0,4.297936440E0,6.112690926E0
1.019987121E0,4.887412071E0,4.306875229E0,5.964571953E0
1.029987121E0,4.816638947E0,4.236225128E0,5.860162735E0
1.039987121E0,4.672173977E0,4.122423649E0,5.794553757E0
1.049987121E0,4.380285263E0,3.902683020E0,5.736984730E0
1.059987121E0,4.037879467E0,3.668490648E0,5.669968128E0
1.069987121E0,3.699912548E0,3.430803299E0,5.577112198E0
1.079987121E0,3.443930626E0,3.176877737E0,5.437530994E0
1.089987121E0,3.285144329E0,2.866823196E0,5.243538857E0
1.099987121E0,3.187706470E0,2.531075954E0,5.066556931E0
1.109987121E0,3.133791924E0,2.102697849E0,4.960080147E0
1.119987121E0,3.113173485E0,1.605529308E0,4.943246841E0
1.129987121E0,3.138952255E0,1.034021854E0,5.042037487E0
1.139987121E0,3.157637119E0,4.882650375E-1,5.192349434E0
1.149987154E0,3.207691669E0,-5.427074432E-2,5.358959198E0
1.159987154E0,3.276735306E0,-5.135073662E-1,5.479050636E0
1.169987154E0,3.446828842E0,-8.626670837E-1,5.513893127E0
1.179987154E0,3.622692108E0,-1.127429962E0,5.469136238E0
1.189987154E0,3.830559254E0,-1.323294163E0,5.337318420E0
1.199987154E0,4.075666428E0,-1.557586193E0,5.122863293E0
1.209987154E0,4.299904823E0,-1.836571217E0,4.791363239E0
1.219987154E0,4.438930988E0,-2.102235317E0,4.409474850E0
1.229987154E0,4.464785099E0,-2.389537811E0,3.967475414E0
1.239987154E0,4.416187286E0,-2.678689480E0,3.538473606E0
1.249987154E0,4.320697784E0,-2.969580650E0,3.146225452E0
1.259987154E0,4.237352848E0,-3.278325081E0,2.877667427E0
1.269987154E0,4.165758610E0,-3.619254112E0,2.811847925E0
1.279987154E0,4.122964859E0,-3.951735497E0,2.858188629E0
1.289987154E0,4.090358734E0,-4.260784149E0,3.067324162E0
1.299987154E0,4.040752888E0,-4.525931358E0,3.345084429E0
1.309987154E0,4.011542320E0,-4.783521175E0,3.669370174E0
1.319987154E0,4.054440498E0,-5.033877373E0,3.935466051E0
1.329987154E0,4.150427818E0,-5.338522434E0,4.106494427E0
1.339987154E0,4.196434975E0,-5.637782097E0,4.211516380E0
1.349987154E0,4.163341522E0,-5.962327957E0,4.308740139E0
1.359987154E0,4.058780670E0,-6.263998508E0,4.390686989E0
1.369987154E0,3.812619209E0,-6.533227921E0,4.485292435E0
1.379987154E0,3.507021904E0,-6.719936371E0,4.579976082E0
1.389987154E0,3.132426262E0,-6.641549110E0,4.666075706E0
1.399987154E0,2.775854111E0,-6.480955601E0,4.738835812E0
1.409987154E0,2.461520195E0,-6.165123463E0,4.800057411E0
1.419987154E0,2.222173691E0,-5.846879482E0,4.871454716E0
1.429987154E0,2.076016426E0,-5.537821293E0,4.968348503E0
1.439987154E0,1.995409966E0,-5.296135902E0,5.059631348E0
1.449987120E0,1.896593094E0,-5.133028030E0,5.142235756E0
1.459987120E0,1.716002464E0,-5.025616169E0,5.219604015E0
1.469987120E0,1.393073082E0,-4.963428497E0,5.276343346E0
1.479986953E0,1.025453568E0,-4.942104340E0,5.330199242E0
1.493720422E0,6.170396805E-1,-4.947809219E0,5.378219604E0
1.503720422E0,2.433013916E-1,-4.955979347E0,5.428098679E0
1.513720422E0,-1.370525360E-1,-4.903287411E0,5.441581249E0
1.523720422E0,-4.736833572E-1,-4.821857929E0,5.435770512E0
1.533720422E0,-7.614817619E-1,-4.639953136E0,5.383749485E0
1.543720422E0,-1.003715515E0,-4.451152325E0,5.328569412E0
1.553720422E0,-1.219605923E0,-4.237225533E0,5.259734631E0
1.563720422E0,-1.411715031E0,-4.018193245E0,5.192589760E0
1.573720422E0,-1.582069397E0,-3.812577724E0,5.152912617E0
1.583720422E0,-1.768905163E0,-3.631652355E0,5.154047012E0
1.593720422E0,-2.013763905E0,-3.486885071E0,5.214819431E0
1.603720422E0,-2.307572365E0,-3.394001722E0,5.304788589E0
1.613720422E0,-2.683762550E0,-3.337118626E0,5.417280674E0
1.623720422E0,-3.078345776E0,-3.329326153E0,5.514303684E0
1.633720422E0,-3.526299953E0,-3.350901842E0,5.599793434E0
1.643720422E0,-3.957235813E0,-3.380468130E0,5.659398079E0
1.653720422E0,-4.399094105E0,-3.441872597E0,5.655115604E0
1.663720422E0,-4.797851562E0,-3.520894051E0,5.616141319E0
1.673720422E0,-5.166707993E0,-3.623269796E0,5.530301094E0
1.683720422E0,-5.479731560E0,-3.741400957E0,5.415636063E0
1.693720422E0,-5.708540916E0,-3.872834921E0,5.295227051E0
1.703720422E0,-5.870546341E0,-3.985087872E0,5.201110840E0
1.713720422E0,-5.967014313E0,-4.088085651E0,5.154731274E0
1.723720422E0,-6.011743546E0,-4.195934772E0,5.123824120E0
1.733720422E0,-5.997831345E0,-4.310800076E0,5.124478817E0
1.743720422E0,-5.950881958E0,-4.407826424E0,5.131694794E0
1.753720422E0,-5.855381489E0,-4.503290653E0,5.139002800E0
1.763720422E0,-5.733838558E0,-4.585486889E0,5.136727810E0
1.773720422E0,-5.582579613E0,-4.653890610E0,5.092368603E0
1.783720588E0,-5.413524628E0,-4.701536179E0,5.020671844E0
1.793720588E0,-5.186015129E0,-4.784722328E0,4.917165279E0
1.803720588E0,-4.915382862E0,-4.860422611E0,4.787000656E0
1.813720588E0,-4.498358727E0,-4.939961910E0,4.613772869E0
1.823720588E0,-4.017215729E0,-5.017542362E0,4.436946869E0
1.833720588E0,-3.385636806E0,-5.139734745E0,4.280401230E0
1.843720588E0,-2.763449192E0,-5.237814903E0,4.159183979E0
1.853720588E0,-2.128570557E0,-5.315140724E0,4.076427460E0
1.863720588E0,-1.552858353E0,-5.374826431E0,4.004085064E0
1.873720588E0,-1.021291733E0,-5.449657440E0,3.969008923E0
1.883720588E0,-5.169754028E-1,-5.469517708E0,3.979166269E0
1.893720588E0,3.839874268E-2,-5.491201401E0,4.003180027E0
1.903720588E0,5.999784470E-1,-5.582624912E0,4.003659248E0
1.913720588E0,1.176646233E0,-5.782835960E0,4.008844376E0
1.923720588E0,1.676577568E0,-6.020244122E0,4.031035900E0
1.933720588E0,2.117527008E0,-6.298292637E0,4.072825909E0
1.943720588E0,2.484637260E0,-6.522194862E0,4.132261753E0
1.953720588E0,2.753406048E0,-6.636374950E0,4.224924088E0
1.963720588E0,2.973930359E0,-6.633800507E0,4.376835823E0
1.973720588E0,3.179159641E0,-6.518975258E0,4.629322052E0
1.983720588E0,3.412837982E0,-6.358174324E0,4.924857616E0
1.993720588E0,3.772831440E0,-6.118116856E0,5.273659706E0
2.003720588E0,4.205523491E0,-5.868193150E0,5.577092171E0
2.013720588E0,4.671982765E0,-5.573347569E0,5.807463169E0
2.023720588E0,5.051627159E0,-5.274997711E0,5.972754002E0
2.033720588E0,5.284955978E0,-4.967669010E0,6.058669567E0
2.043720588E0,5.421504974E0,-4.661929607E0,6.125564575E0
2.053720588E0,5.568185329E0,-4.343210220E0,6.201233864E0
2.063720588E0,5.782953739E0,-3.973193645E0,6.313091278E0
2.073720588E0,6.055695057E0,-3.512477875E0,6.443423271E0
2.083720588E0,6.327953815E0,-3.019747734E0,6.555182457E0
2.093720588E0,6.548289776E0,-2.421345234E0,6.629998207E0
2.103720588E0,6.746624470E0,-1.795711994E0,6.663562775E0
2.113720588E0,6.958195210E0,-1.008500099E0,6.572319031E0
2.123720588E0,7.069907188E0,-2.383775711E-1,6.426952839E0
2.133720588E0,6.907735825E0,5.633964539E-1,6.211112022E0
2.143720588E0,6.624943256E0,1.258578300E0,5.991486073E0
2.153720588E0,6.162831783E0,1.875281811E0,5.759599686E0
2.163720588E0,5.591314316E0,2.374362946E0,5.530734062E0
2.173720588E0,4.926244259E0,2.759257317E0,5.322334290E0
2.183720588E0,4.239849091E0,3.038721561E0,5.153310776E0
2.193720588E0,3.567479610E0,3.206090927E0,5.026043415E0
2.203720588E0,2.974346638E0,3.297795534E0,4.930556774E0
2.213720588E0,2.518020153E0,3.342915297E0,4.888871193E0
2.223720588E0,2.198857307E0,3.354569197E0,4.902856827E0
2.233720588E0,2.002591610E0,3.321583509E0,4.977391720E0
2.243720588E0,1.876686096E0,3.282742262E0,5.073510647E0
2.253720588E0,1.836471081E0,3.240219831E0,5.234885216E0
2.263720588E0,1.818421364E0,3.214203119E0,5.403698444E0
2.273720588E0,1.834480762E0,3.215379000E0,5.597310066E0
2.283720588E0,1.901652336E0,3.240076303E0,5.756109238E0
2.293720588E0,2.043874741E0,3.289349079E0,5.852167606E0
2.303720588E0,2.211912632E0,3.321757793E0,5.872505665E0
2.313720588E0,2.369610786E0,3.334727287E0,5.815124989E0
2.323720588E0,2.464428902E0,3.285359859E0,5.728474140E0
2.333720588E0,2.483266354E0,3.159943819E0,5.638030529E0
2.343720588E0,2.472681522E0,2.977045298E0,5.564780712E0
2.353720588E0,2.440246105E0,2.759742260E0,5.531264305E0
2.363720588E0,2.381338120E0,2.594521999E0,5.514741421E0
2.373720588E0,2.309928417E0,2.454339027E0,5.485408783E0
2.383720588E0,2.267363548E0,2.267225266E0,5.428724766E0
2.393720588E0,2.272646904E0,2.021795750E0,5.338595867E0
2.403720588E0,2.323155880E0,1.726778507E0,5.220102310E0
2.413720588E0,2.434667110E0,1.351163864E0,5.104750156E0
2.423720588E0,2.546473026E0,9.344277382E-1,4.959636211E0
2.433720621E0,2.707412720E0,3.203191757E-1,4.727673531E0
2.443720621E0,2.887391567E0,-3.364553452E-1,4.472779751E0
2.453720621E0,3.095001221E0,-1.080564022E0,4.198948860E0
2.463720621E0,3.300422668E0,-1.791374207E0,3.958930492E0
2.473720621E0,3.452879906E0,-2.413635731E0,3.770770788E0
2.483720621E0,3.533488274E0,-2.939835072E0,3.646412849E0
2.493720621E0,3.586295605E0,-3.337174892E0,3.592129230E0
2.503720621E0,3.667324543E0,-3.630798817E0,3.562537193E0
2.513720621E0,3.840645313E0,-3.805725098E0,3.514935970E0
2.523720621E0,4.042980194E0,-3.840442657E0,3.456372023E0
2.533720621E0,4.153316498E0,-3.792751312E0,3.426046610E0
2.543720621E0,4.143433571E0,-3.745934010E0,3.440820456E0
2.553720621E0,3.993584156E0,-3.819512844E0,3.518551826E0
2.563720621E0,3.788092136E0,-4.008004189E0,3.640776396E0
2.573720621E0,3.587175846E0,-4.336168766E0,3.852889538E0
2.583720621E0,3.459533691E0,-4.754139900E0,4.101160049E0
2.593720621E0,3.499699593E0,-5.234526157E0,4.389718533E0
2.603720621E0,3.567572594E0,-5.631379128E0,4.667040348E0
2.613720621E0,3.539394379E0,-5.771522999E0,4.889435291E0
2.623720621E0,3.461429596E0,-5.775495529E0,5.078664303E0
2.633720621E0,3.258196831E0,-5.597655296E0,5.228963375E0
2.643720621E0,2.967553616E0,-5.315449715E0,5.378355503E0
2.653720621E0,2.598599434E0,-5.013002396E0,5.524052143E0
2.663720621E0,2.180480480E0,-4.748309612E0,5.692574501E0
2.673720621E0,1.678707123E0,-4.508251667E0,5.886599064E0
2.683720621E0,1.149546146E0,-4.327166080E0,6.054068089E0
2.693720621E0,5.906076431E-1,-4.202731609E0,6.158870697E0
2.703720621E0,5.322551727E-2,-4.145449162E0,6.192271233E0
2.713720621E0,-5.102105141E-1,-4.178914070E0,6.114945412E0
2.723720621E0,-1.043842316E0,-4.246770382E0,5.987063408E0
2.733720587E0,-1.608156204E0,-4.326522827E0,5.813322544E0
2.743720587E0,-2.127138138E0,-4.427733898E0,5.668513298E0
2.753720587E0,-2.648675919E0,-4.541907787E0,5.570843220E0
2.763720620E0,-3.135817528E0,-4.633377075E0,5.514916420E0
2.773720620E0,-3.596991062E0,-4.707137108E0,5.496902466E0
2.783720620E0,-4.023745060E0,-4.756587982E0,5.503243446E0
2.793720620E0,-4.404191017E0,-4.762963295E0,5.526896477E0
2.803720620E0,-4.704864025E0,-4.740962029E0,5.540159702E0
2.813720620E0,-4.911457062E0,-4.698832989E0,5.521584511E0
2.823720620E0,-5.029558182E0,-4.621228695E0,5.473777771E0
2.833720620E0,-5.022260666E0,-4.521241188E0,5.366651058E0
2.843720620E0,-4.974864006E0,-4.430303574E0,5.213406086E0
2.853720620E0,-4.869327545E0,-4.371189117E0,4.982792377E0
2.863720620E0,-4.784683228E0,-4.358938217E0,4.780598164E0
2.873720620E0,-4.781661987E0,-4.444731712E0,4.622276306E0
2.883720620E0,-4.829308033E0,-4.600788116E0,4.541121006E0
2.893720620E0,-4.904683113E0,-4.842171192E0,4.540124893E0
2.903720620E0,-4.975148201E0,-5.126925945E0,4.574126244E0
2.913720620E0,-5.027122498E0,-5.441810131E0,4.603479862E0
2.923720620E0,-5.047833443E0,-5.704319954E0,4.601497650E0
2.933721786E0,-5.018502235E0,-5.913824081E0,4.528507233E0
2.943721786E0,-4.931340218E0,-6.073237419E0,4.388412952E0
2.953721786E0,-4.792822838E0,-6.117097378E0,4.155355930E0
2.963721786E0,-4.648519516E0,-6.130784512E0,3.906018734E0
2.973721786E0,-4.476026058E0,-6.176256657E0,3.692226171E0
2.983721786E0,-4.312891483E0,-6.236261368E0,3.550538540E0
2.993721786E0,-4.123498440E0,-6.365730286E0,3.499643803E0
3.003721786E0,-3.918372154E0,-6.587776184E0,3.488488674E0
3.013721786E0,-3.688468456E0,-6.922238827E0,3.521311760E0
3.023721786E0,-3.513164997E0,-7.230616093E0,3.553648949E0
3.033721786E0,-3.429285049E0,-7.486029625E0,3.597129107E0
3.043721786E0,-3.390367985E0,-7.653592110E0,3.651167631E0
3.053721786E0,-3.376211643E0,-7.672895432E0,3.794911385E0
3.063721752E0,-3.328547955E0,-7.613364220E0,4.014612198E0
3.073721752E0,-3.169652939E0,-7.507473946E0,4.349209309E0
3.083721752E0,-2.930737495E0,-7.406929016E0,4.690021992E0
3.093721752E0,-2.513497353E0,-7.378870964E0,5.041250706E0
3.103721752E0,-1.987164974E0,-7.340567589E0,5.361512184E0
3.113721752E0,-1.279438972E0,-7.324100494E0,5.603417397E0
3.123721752E0,-5.004858971E-1,-7.351325989E0,5.731573105E0
3.133721752E0,2.811002731E-1,-7.404454708E0,5.721418381E0
3.143721752E0,9.823637009E-1,-7.430237770E0,5.629003048E0
3.153721752E0,1.592945099E0,-7.392062664E0,5.466527462E0
3.163721752E0,2.144040108E0,-7.242519855E0,5.320370674E0
3.173721752E0,2.680409431E0,-6.902825356E0,5.188920021E0
3.183721752E0,3.194693565E0,-6.451108456E0,5.085953712E0
3.193721752E0,3.716683865E0,-5.788197517E0,5.022225380E0
3.203721752E0,4.222125053E0,-5.078039646E0,4.976034641E0
3.213721752E0,4.671221733E0,-4.217786312E0,4.944702148E0
3.223721585E0,5.029562950E0,-3.402822971E0,4.920215607E0
3.233720418E0,5.222960472E0,-2.584882736E0,4.898512840E0
3.243720418E0,5.249397755E0,-1.826163769E0,4.879813194E0
3.253720418E0,5.066501141E0,-1.165935040E0,4.858125210E0
3.263720418E0,4.719955444E0,-6.177449226E-1,4.824833393E0
3.273720418E0,4.255798817E0,-1.417274475E-1,4.791645050E0
3.283720418E0,3.767588139E0,2.723455429E-1,4.751245975E0
3.293720418E0,3.285221577E0,6.182947159E-1,4.709718227E0
3.303720418E0,2.864778042E0,9.040341377E-1,4.667604923E0
3.313720418E0,2.494235516E0,1.143750668E0,4.634916782E0
3.323720418E0,2.212985516E0,1.364468098E0,4.617702961E0
3.333720418E0,2.045188904E0,1.621513367E0,4.650202274E0
3.343720451E0,1.950016499E0,1.869305611E0,4.699060440E0
3.353720451E0,1.912928581E0,2.100305557E0,4.775588036E0
3.363720451E0,1.855476856E0,2.273104668E0,4.853448391E0
3.373720451E0,1.749474049E0,2.381344318E0,4.918292999E0
3.383720451E0,1.582679272E0,2.451091766E0,4.938151360E0
3.393720451E0,1.333992481E0,2.469139099E0,4.877779961E0
3.403720451E0,1.041168690E0,2.468980312E0,4.742221355E0
3.413720451E0,7.459597588E-1,2.463426590E0,4.553007126E0
3.423720451E0,5.205249786E-1,2.478168011E0,4.369737148E0
3.433720451E0,5.134654045E-1,2.459881783E0,4.274982452E0
3.443720451E0,7.070240974E-1,2.450026512E0,4.265320778E0
3.453720451E0,1.241449356E0,2.391281128E0,4.431502342E0
3.463720451E0,1.856326103E0,2.279594898E0,4.661957264E0
