"Time (s)","Linear Acceleration x (m/s^2)","Linear Acceleration y (m/s^2)","Linear Acceleration z (m/s^2)"
2.621115500E-2,3.821788788E0,1.696456194E0,-3.082139969E0
3.622315500E-2,3.767046928E0,1.727167845E0,-3.082142830E0
4.622315500E-2,3.712363720E0,1.758018613E0,-3.081766129E0
5.622315500E-2,3.620220661E0,1.836794496E0,-3.085024834E0
6.622315500E-2,3.509082556E0,1.908151865E0,-3.082893372E0
7.622315500E-2,3.375563145E0,1.970301509E0,-3.074065208E0
8.622315500E-2,3.218326569E0,2.024573565E0,-3.057749748E0
9.622315500E-2,3.039200068E0,2.074175835E0,-3.033710480E0
1.062231550E-1,2.842467070E0,2.124812603E0,-3.002473831E0
1.162231550E-1,2.631274939E0,2.182791233E0,-2.964494705E0
1.262231550E-1,2.401415110E0,2.262468338E0,-2.919473648E0
1.362231550E-1,2.166749954E0,2.362402916E0,-2.869143486E0
1.462231550E-1,1.928539515E0,2.485145569E0,-2.813084602E0
1.562231550E-1,1.681598902E0,2.629292965E0,-2.748108864E0
1.662231550E-1,1.436318159E0,2.791594505E0,-2.675893784E0
1.762231550E-1,1.197292566E0,2.965652704E0,-2.596848488E0
1.862231550E-1,9.641437531E-1,3.148430824E0,-2.510319710E0
1.962231550E-1,7.420125008E-1,3.339787960E0,-2.418360710E0
2.062232130E-1,5.382094383E-1,3.543574333E0,-2.324640274E0
2.162232130E-1,3.535923958E-1,3.760519743E0,-2.229936600E0
2.262232130E-1,1.764197350E-1,3.984620094E0,-2.128438950E0
2.362232130E-1,-2.946376801E-3,4.204163074E0,-2.015259743E0
2.462232130E-1,-1.913628578E-1,4.408866405E0,-1.887105942E0
2.562232130E-1,-3.837723732E-1,4.596538544E0,-1.747237206E0
2.662232130E-1,-5.680141449E-1,4.771017075E0,-1.603479385E0
2.762232130E-1,-7.228970528E-1,4.942924976E0,-1.470003605E0
2.862232130E-1,-8.510780334E-1,5.128583908E0,-1.344040394E0
2.962232130E-1,-9.534897804E-1,5.332925797E0,-1.224468231E0
3.062232130E-1,-1.032770634E0,5.556374550E0,-1.108973980E0
3.162232130E-1,-1.096795559E0,5.796044350E0,-9.914193153E-1
3.262232130E-1,-1.153073788E0,6.043119431E0,-8.674182892E-1
3.362232130E-1,-1.208030701E0,6.282869816E0,-7.362904549E-1
3.462232130E-1,-1.264222622E0,6.505625248E0,-6.002664566E-1
3.562232130E-1,-1.319492817E0,6.709726334E0,-4.633035660E-1
3.662232130E-1,-1.366548538E0,6.897806644E0,-3.323812485E-1
3.762232130E-1,-1.395719051E0,7.079026222E0,-2.135329247E-1
3.862232130E-1,-1.397699356E0,7.264480591E0,-1.107506752E-1
3.962232130E-1,-3.173623085E-1,6.172118187E0,-1.251095772E0
4.062232130E-1,1.201852798E0,4.626008034E0,-1.656463623E0
4.162232130E-1,2.504549503E0,3.432620525E0,-1.986214638E0
4.262232130E-1,3.708192825E0,2.544290304E0,-2.205950260E0
4.362232130E-1,4.803062916E0,1.898015499E0,-2.308619499E0
4.462232130E-1,4.937343597E0,2.173361778E0,-2.208040714E0
4.562232460E-1,6.507922173E0,1.134951591E0,-2.251534224E0
4.662232460E-1,7.089036465E0,9.322795868E-1,-2.170726061E0
4.762232460E-1,7.479325771E0,7.961854935E-1,-2.084535837E0
4.862232460E-1,7.745532036E0,7.440013885E-1,-2.003951311E0
4.962232460E-1,7.744589806E0,4.952449799E-1,-1.959527969E0
5.062232120E-1,7.779857159E0,4.095339775E-1,-1.955659389E0
5.162232120E-1,8.005006790E0,6.701645851E-1,-1.814147949E0
5.262232120E-1,8.258749008E0,7.075953484E-1,-1.807794333E0
5.362232120E-1,8.527097702E0,9.652075768E-1,-1.647429228E0
5.462232120E-1,8.842157364E0,5.732064247E-1,-1.599836588E0
5.562232120E-1,9.178751945E0,4.929857254E-1,-1.465335608E0
5.662232120E-1,9.570529938E0,4.201869965E-1,-1.296345711E0
5.762232120E-1,9.776155472E0,5.946941376E-1,-1.110647678E0
5.862232120E-1,1.039194298E1,4.619855881E-1,-1.062768936E0
5.962232120E-1,1.070987034E1,5.129871368E-1,-1.116131783E0
6.062232120E-1,1.078649521E1,6.350202560E-1,-1.214601994E0
6.162232120E-1,1.048095226E1,8.894181252E-1,-1.274102688E0
6.262232120E-1,1.008069229E1,1.163071156E0,-1.228024960E0
6.362232120E-1,9.665285110E0,1.400306225E0,-1.026752472E0
6.462232120E-1,9.336412430E0,1.658553123E0,-7.094523907E-1
6.562232120E-1,9.158057213E0,2.031256199E0,-2.762632370E-1
6.662232120E-1,9.137632370E0,2.505708218E0,1.941132545E-1
6.762232120E-1,9.254987717E0,3.080774784E0,6.421480179E-1
6.862232120E-1,9.406776428E0,3.676807880E0,1.029440641E0
6.962232120E-1,9.540399551E0,4.323586464E0,1.336391926E0
7.062232450E-1,9.609389305E0,4.895122051E0,1.556945324E0
7.162232450E-1,9.533641815E0,5.406496048E0,1.627215981E0
7.262232450E-1,9.332098961E0,5.847761154E0,1.542690039E0
7.362232450E-1,9.033884048E0,6.233695984E0,1.321931958E0
7.462232450E-1,8.772891045E0,6.511034012E0,1.037129521E0
7.562232110E-1,8.564473152E0,6.628164768E0,7.367781401E-1
7.662232110E-1,8.439991951E0,6.652583599E0,4.648537636E-1
7.762232110E-1,8.371769905E0,6.593773842E0,2.277939320E-1
7.862232110E-1,8.340504646E0,6.515277386E0,1.436233521E-2
7.962232110E-1,8.319679260E0,6.389395237E0,-2.181751728E-1
8.062232110E-1,8.282111168E0,6.216200829E0,-5.003126860E-1
8.162232110E-1,8.223708153E0,5.955109596E0,-9.042080641E-1
8.262232110E-1,8.122861862E0,5.675392151E0,-1.370869756E0
8.362232110E-1,7.964173794E0,5.409308910E0,-1.906122923E0
8.462232110E-1,7.748675346E0,5.158293724E0,-2.425216198E0
8.562232110E-1,7.467054367E0,4.886365414E0,-2.941940784E0
8.662232110E-1,7.208214760E0,4.606101513E0,-3.404620171E0
8.762232110E-1,6.981324196E0,4.302418232E0,-3.747131824E0
8.862232110E-1,6.761734009E0,4.035245895E0,-3.977665186E0
8.962232110E-1,6.526693344E0,3.767086506E0,-4.055125237E0
9.062232110E-1,6.227318287E0,3.454782486E0,-4.053460121E0
9.162232110E-1,5.861052036E0,3.097259045E0,-4.048594952E0
9.262232110E-1,5.504853249E0,2.731723785E0,-4.058832645E0
9.362232110E-1,5.196108818E0,2.344836712E0,-4.061372757E0
9.462232110E-1,4.918667793E0,2.004475594E0,-4.026315212E0
9.562232440E-1,4.723487854E0,1.667370319E0,-3.908710718E0
9.662232440E-1,4.623377800E0,1.306937695E0,-3.732740879E0
9.762232440E-1,4.625909805E0,8.937826157E-1,-3.477502584E0
9.862232440E-1,4.616105556E0,5.031237602E-1,-3.195312262E0
9.962232440E-1,4.583539009E0,1.831283569E-1,-2.833686352E0
1.006223210E0,4.497744560E0,-1.003026962E-1,-2.498770237E0
1.016223210E0,4.369822979E0,-3.402256966E-1,-2.195349693E0
1.026223210E0,4.239581585E0,-5.779461861E-1,-1.999709368E0
1.036223210E0,4.095252514E0,-7.958374023E-1,-1.962360382E0
1.046223210E0,3.978750229E0,-1.028624535E0,-2.066269398E0
1.056223210E0,3.853908539E0,-1.276521683E0,-2.295519829E0
1.066223210E0,3.697641373E0,-1.559424877E0,-2.609983444E0
1.076223210E0,3.463647842E0,-1.867003918E0,-3.016072750E0
1.086223210E0,3.195570946E0,-2.205420971E0,-3.440659046E0
1.096223210E0,2.883255959E0,-2.577048302E0,-3.828203440E0
1.106223210E0,2.577543259E0,-2.963532925E0,-4.154851913E0
1.116223210E0,2.297546864E0,-3.396560192E0,-4.416244984E0
1.126223210E0,2.034024239E0,-3.805547714E0,-4.617738724E0
1.136223210E0,1.722666264E0,-4.196073055E0,-4.791881084E0
1.146223210E0,1.342870712E0,-4.535379410E0,-4.953987598E0
1.156223210E0,9.100494385E-1,-4.812837601E0,-5.141434193E0
1.166223210E0,4.947528839E-1,-5.083831787E0,-5.354132652E0
1.176223210E0,1.310324669E-1,-5.416887283E0,-5.564488888E0
1.186223210E0,-1.905412674E-1,-5.798621655E0,-5.741746426E0
1.196223210E0,-5.160312653E-1,-6.243000031E0,-5.892169952E0
1.206223210E0,-8.459081650E-1,-6.671553612E0,-6.003726959E0
1.216223210E0,-1.206654072E0,-7.060617924E0,-6.074410439E0
1.226223210E0,-1.551823616E0,-7.366074085E0,-6.108305931E0
1.236223210E0,-1.906201363E0,-7.543133736E0,-6.065000534E0
1.246223210E0,-2.226135254E0,-7.604067802E0,-5.973635674E0
1.256223176E0,-2.496905327E0,-7.497361183E0,-5.817473888E0
1.266223176E0,-2.659289837E0,-7.252738953E0,-5.643537521E0
1.276223176E0,-2.714751244E0,-6.958796501E0,-5.510663986E0
1.286223176E0,-2.694167137E0,-6.696321964E0,-5.427447796E0
1.296223176E0,-2.613196373E0,-6.438982964E0,-5.377885818E0
1.306223176E0,-2.502530098E0,-6.244221687E0,-5.344321251E0
1.316223176E0,-2.371988297E0,-6.212066650E0,-5.349081993E0
1.326223176E0,-2.237449646E0,-6.282876492E0,-5.366305828E0
1.336223176E0,-2.083817482E0,-6.448467255E0,-5.379284859E0
1.346222776E0,-1.929667473E0,-6.616894722E0,-5.379965782E0
1.356222776E0,-1.790930271E0,-6.730472565E0,-5.347763062E0
1.366222776E0,-1.680132866E0,-6.730244637E0,-5.291455746E0
1.376222776E0,-1.564325333E0,-6.533039093E0,-5.185383797E0
1.386222776E0,-1.383711338E0,-6.200640678E0,-5.021256447E0
1.396222776E0,-1.140999794E0,-5.738514900E0,-4.799161434E0
1.406222776E0,-8.935914040E-1,-5.191134453E0,-4.565087795E0
1.416222776E0,-6.939773560E-1,-4.584975243E0,-4.319767952E0
1.426222776E0,-5.593390465E-1,-4.008606434E0,-4.097393513E0
1.436222776E0,-5.107178688E-1,-3.501030922E0,-3.903651714E0
1.446222776E0,-4.915862083E-1,-3.074329376E0,-3.746155262E0
1.460265499E0,-5.034556389E-1,-2.704076767E0,-3.604709148E0
1.470265499E0,-4.852409363E-1,-2.368299961E0,-3.487217665E0
1.480265499E0,-4.062523842E-1,-2.075401306E0,-3.386747360E0
1.490265499E0,-2.866978645E-1,-1.792068958E0,-3.311794758E0
1.500265499E0,-1.092772484E-1,-1.509737492E0,-3.297463894E0
1.510265499E0,1.145949364E-1,-1.227613926E0,-3.322538853E0
1.520265499E0,3.454685211E-1,-9.441804886E-1,-3.382970810E0
1.530265499E0,5.268840790E-1,-6.579389572E-1,-3.448311090E0
1.540265499E0,6.550197601E-1,-3.740305901E-1,-3.514174461E0
1.550265499E0,7.444190979E-1,-9.472084045E-2,-3.558080196E0
1.560265499E0,8.446831703E-1,2.086000443E-1,-3.594531059E0
1.570265499E0,9.734635353E-1,4.897527695E-1,-3.615670204E0
1.580265499E0,1.152287960E0,7.747511864E-1,-3.638631821E0
1.590265499E0,1.359760284E0,1.029000282E0,-3.645564795E0
1.600265499E0,1.604602814E0,1.250443935E0,-3.620744467E0
1.610265499E0,1.850701809E0,1.441062450E0,-3.563251257E0
1.620265499E0,2.147684097E0,1.597476482E0,-3.444664955E0
1.630265499E0,2.491537571E0,1.758824825E0,-3.280942917E0
1.640265499E0,2.897485256E0,1.897265911E0,-3.097315788E0
1.650265899E0,3.305756092E0,1.983523369E0,-2.927462339E0
1.660265899E0,3.669435978E0,2.037420273E0,-2.792792082E0
1.670265899E0,3.996161938E0,2.049128532E0,-2.695003986E0
1.680265899E0,4.317092419E0,1.977211952E0,-2.620263100E0
1.690265899E0,4.643127441E0,1.907967567E0,-2.542677402E0
1.700265899E0,5.012702942E0,1.821660042E0,-2.469252586E0
1.710265932E0,5.415959358E0,1.716024399E0,-2.401902676E0
1.720265932E0,5.847281933E0,1.555312157E0,-2.361354828E0
1.730265932E0,6.183868408E0,1.377223492E0,-2.355764866E0
1.740265932E0,6.306052208E0,1.157051086E0,-2.458828449E0
1.750265932E0,6.333595276E0,8.290209770E-1,-2.661840916E0
1.760265898E0,6.391025543E0,3.534297943E-1,-2.908036232E0
1.770265898E0,6.526335716E0,-9.382820129E-2,-3.104805470E0
1.780265898E0,6.825045586E0,-3.289384842E-1,-3.149413586E0
1.790265898E0,7.209398270E0,-3.377857208E-1,-3.073830605E0
1.800265898E0,7.656723976E0,1.922035217E-2,-2.861155272E0
1.810265898E0,8.017464638E0,5.569896698E-1,-2.586177111E0
1.820265898E0,8.227558136E0,1.252047539E0,-2.248094320E0
1.830265898E0,8.333234787E0,1.920434475E0,-1.905961275E0
1.840265898E0,8.292255402E0,2.506417274E0,-1.567961454E0
1.850265898E0,8.216235161E0,2.930685997E0,-1.268527269E0
1.860265898E0,8.112277985E0,3.209796429E0,-1.021026254E0
1.870265898E0,8.015669823E0,3.408123016E0,-8.743088245E-1
1.880265898E0,7.932898998E0,3.560363770E0,-8.677716255E-1
1.890265898E0,7.891007423E0,3.665106773E0,-9.844189882E-1
1.900265898E0,7.952845573E0,3.769006729E0,-1.215465188E0
1.910265898E0,8.072137833E0,3.876475811E0,-1.494204760E0
1.920265898E0,8.334814072E0,3.979675293E0,-1.776691198E0
1.930265898E0,8.627289772E0,4.057926655E0,-2.012419224E0
1.940265898E0,8.926916122E0,4.175307751E0,-2.151924372E0
1.950265898E0,9.148339272E0,4.309414864E0,-2.233311176E0
1.960265931E0,9.230325699E0,4.456377506E0,-2.298751354E0
1.970265931E0,9.160571098E0,4.551270485E0,-2.397935867E0
1.980265931E0,8.899974823E0,4.598244190E0,-2.549962521E0
1.990265931E0,8.496102333E0,4.620046616E0,-2.731222153E0
2.000265931E0,7.992964268E0,4.607855320E0,-2.892353296E0
2.010265897E0,7.468649864E0,4.545485497E0,-3.002187490E0
2.020265897E0,6.947808743E0,4.413535118E0,-3.028721571E0
2.030265897E0,6.467690468E0,4.205765724E0,-3.005063295E0
2.040265897E0,6.026403904E0,3.870453358E0,-2.908307552E0
2.050265897E0,5.614051819E0,3.468795300E0,-2.783460855E0
2.060265897E0,5.183410645E0,3.003227234E0,-2.619626284E0
2.070265897E0,4.760728836E0,2.542001247E0,-2.454491615E0
2.080265897E0,4.297072411E0,2.017315388E0,-2.254383087E0
2.090265930E0,3.845839500E0,1.503702164E0,-2.080972433E0
2.100265930E0,3.401562214E0,9.411830902E-1,-1.914398909E0
2.110265930E0,2.925415039E0,4.149718285E-1,-1.773814917E0
2.120265930E0,2.478363037E0,-7.511377335E-2,-1.657406330E0
2.130265930E0,2.069960117E0,-5.522565842E-1,-1.611510754E0
2.140265930E0,1.666500568E0,-9.460053444E-1,-1.705959320E0
2.150265930E0,1.313909054E0,-1.301183701E0,-1.931029797E0
2.160265930E0,9.831390381E-1,-1.661567688E0,-2.311285019E0
2.170265930E0,6.679120064E-1,-2.010998726E0,-2.752483606E0
2.180265930E0,3.335075378E-1,-2.374609470E0,-3.232251883E0
2.190265930E0,1.988887787E-2,-2.755846024E0,-3.651648521E0
2.200265930E0,-3.302249908E-1,-3.157762766E0,-3.921033144E0
2.210265963E0,-6.699318886E-1,-3.541163683E0,-4.154745579E0
2.220265963E0,-9.754157066E-1,-3.964524269E0,-4.276206970E0
2.230265963E0,-1.258998394E0,-4.413811207E0,-4.373075008E0
2.240265963E0,-1.520090103E0,-4.924956322E0,-4.490421295E0
2.250265963E0,-1.763892651E0,-5.455920219E0,-4.595444202E0
2.260265929E0,-1.993638039E0,-5.979030609E0,-4.722951889E0
2.270265929E0,-2.191475391E0,-6.425250053E0,-4.852355957E0
2.280265929E0,-2.348637581E0,-6.796866417E0,-5.003951550E0
2.290265929E0,-2.480258942E0,-7.065483570E0,-5.148718357E0
2.300265929E0,-2.557710648E0,-7.221908569E0,-5.279361725E0
2.310265929E0,-2.550266266E0,-7.368876457E0,-5.396507263E0
2.320265929E0,-2.358045578E0,-7.687354088E0,-5.532533646E0
2.330265929E0,-2.127922058E0,-8.099343300E0,-5.667455673E0
2.340265929E0,-1.843428612E0,-8.615962029E0,-5.807801723E0
2.350265929E0,-1.569528103E0,-9.109181404E0,-5.921928883E0
2.360265929E0,-1.315089226E0,-9.446092606E0,-5.982384682E0
2.370265929E0,-1.082340240E0,-9.519555092E0,-5.957587719E0
2.380265929E0,-8.791756630E-1,-9.208855629E0,-5.840979576E0
2.390265895E0,-6.699724197E-1,-8.744376183E0,-5.717501640E0
2.400265895E0,-3.779582977E-1,-8.173851967E0,-5.589389324E0
2.410265895E0,-3.944301605E-2,-7.635490894E0,-5.463750362E0
2.420265895E0,-1.369762421E-2,-7.533881187E0,-5.470762730E0
2.430265895E0,6.490030289E-1,-6.949764252E0,-5.177355766E0
2.440265895E0,8.666620255E-1,-6.881923676E0,-5.065575600E0
2.450265895E0,9.983348846E-1,-6.900814056E0,-4.987351418E0
2.460265928E0,1.064737320E0,-6.975164413E0,-4.946215153E0
2.470265928E0,1.144993782E0,-7.033205986E0,-4.941074848E0
2.480265928E0,1.242382050E0,-6.959648132E0,-4.935065746E0
2.490265928E0,1.350168228E0,-6.730790615E0,-4.902907848E0
2.500265928E0,1.439300537E0,-6.273128510E0,-4.835772991E0
2.510265894E0,1.519613266E0,-5.735089302E0,-4.759005547E0
2.520265894E0,1.540695190E0,-5.092322350E0,-4.663271427E0
2.530265894E0,1.493227959E0,-4.427617073E0,-4.554549694E0
2.540265894E0,1.331042290E0,-3.734370947E0,-4.427442074E0
2.550265894E0,1.122098446E0,-3.117523193E0,-4.302677631E0
2.560265894E0,8.538155556E-1,-2.551780701E0,-4.201771736E0
2.570265894E0,6.112604141E-1,-2.050822496E0,-4.124083996E0
2.580265894E0,4.188966751E-1,-1.596727848E0,-4.055857182E0
2.590265894E0,3.054804802E-1,-1.203552723E0,-4.002291203E0
2.600265894E0,2.824525833E-1,-8.544664383E-1,-3.967707872E0
2.610265894E0,3.258152008E-1,-5.277347565E-1,-3.953032255E0
2.620265894E0,4.295663834E-1,-1.828174591E-1,-3.964495420E0
2.630265894E0,4.993348122E-1,1.318254471E-1,-3.991138220E0
2.640265894E0,4.650516510E-1,4.105782509E-1,-4.051710606E0
2.650265894E0,3.489332199E-1,6.356849670E-1,-4.123202324E0
2.660265894E0,1.373567581E-1,8.157229424E-1,-4.206653118E0
2.670265894E0,-9.797811508E-2,9.704976082E-1,-4.289857864E0
2.680265894E0,-3.498473167E-1,1.110503197E0,-4.373261452E0
2.690265894E0,-5.365796089E-1,1.232666254E0,-4.439273834E0
2.700265894E0,-6.447310448E-1,1.336627722E0,-4.472597599E0
2.710265927E0,-6.886653900E-1,1.421489239E0,-4.462236404E0
2.720265927E0,-6.612381935E-1,1.453814507E0,-4.418013573E0
2.730265927E0,-5.883564949E-1,1.426592350E0,-4.348263741E0
2.740265927E0,-4.845547676E-1,1.320620537E0,-4.244297981E0
2.750265927E0,-3.805379868E-1,1.181924343E0,-4.114802837E0
2.760265893E0,-2.655706406E-1,1.007319450E0,-3.944459438E0
2.770265893E0,-1.062908173E-1,8.311514854E-1,-3.740960360E0
2.780265893E0,1.087541580E-1,6.217980385E-1,-3.469031811E0
2.790265893E0,3.708567619E-1,4.610300064E-1,-3.179687977E0
2.800265893E0,7.999525070E-1,2.884216309E-1,-2.859974384E0
2.810265893E0,1.268413544E0,1.229758263E-1,-2.581416130E0
2.820265893E0,1.752996445E0,-4.489517212E-2,-2.362291336E0
2.830265893E0,2.241155148E0,-1.988310814E-1,-2.253507614E0
2.840265893E0,2.748127460E0,-3.592066765E-1,-2.219810486E0
2.850265893E0,3.212309361E0,-4.549989700E-1,-2.206912518E0
2.860265893E0,3.629412174E0,-4.231791496E-1,-2.175861835E0
2.870265893E0,4.028574467E0,-3.158574104E-1,-2.118137360E0
2.880265893E0,4.493988037E0,-1.657085419E-1,-2.048216343E0
2.890265893E0,4.996811867E0,-3.055763245E-2,-2.018034458E0
2.900265893E0,5.578965664E0,1.113367081E-2,-2.058495760E0
2.910265893E0,6.164421082E0,-2.073240280E-2,-2.142240047E0
2.920265893E0,6.704376698E0,-4.762220383E-2,-2.285483122E0
2.930265893E0,7.109625816E0,2.438831329E-2,-2.450394154E0
2.940265893E0,7.335100651E0,2.580385208E-1,-2.619763851E0
2.950265893E0,7.400946140E0,6.347780228E-1,-2.764985561E0
2.960265926E0,7.344018459E0,1.136358738E0,-2.847009182E0
2.970265926E0,7.272910595E0,1.614759922E0,-2.852235317E0
2.980265926E0,7.217196941E0,1.972704411E0,-2.743441343E0
2.990265926E0,7.193800926E0,2.216903687E0,-2.578102112E0
3.000265926E0,7.266095638E0,2.281780720E0,-2.345804691E0
3.010265892E0,7.395467758E0,2.235462666E0,-2.121562958E0
3.020265892E0,7.585310936E0,2.073156357E0,-1.950154781E0
3.030265892E0,7.726644993E0,1.862133503E0,-1.882500052E0
3.040265892E0,7.772604942E0,1.581006050E0,-2.044782639E0
3.050265892E0,7.716650963E0,1.277897358E0,-2.314397335E0
3.060265892E0,7.450791359E0,9.780516624E-1,-2.698883772E0
3.070265892E0,7.034809113E0,7.681288719E-1,-3.132128716E0
3.080265892E0,6.517906666E0,6.404805183E-1,-3.575549126E0
3.090265892E0,5.961905003E0,5.810236931E-1,-3.955229521E0
3.100265892E0,5.340872765E0,6.139779091E-1,-4.260223389E0
3.110265892E0,4.732412815E0,6.850433350E-1,-4.486125469E0
3.120265892E0,4.109285831E0,7.713055611E-1,-4.622529984E0
3.130265892E0,3.513785362E0,8.069033623E-1,-4.708551407E0
3.140265892E0,2.899618626E0,7.589735985E-1,-4.735692024E0
3.150265892E0,2.288165092E0,6.406078339E-1,-4.766906738E0
3.160265892E0,1.536668301E0,4.251012802E-1,-4.856828213E0
3.170265925E0,8.118562698E-1,1.797022820E-1,-4.974618912E0
3.180265925E0,7.604455948E-2,-9.538793564E-2,-5.130595684E0
3.190265925E0,-6.062927246E-1,-3.664703369E-1,-5.265764713E0
3.200265925E0,-1.145451069E0,-5.661859512E-1,-5.342068195E0
3.210265958E0,-1.506841183E0,-6.835899353E-1,-5.347928047E0
3.220265958E0,-1.593158722E0,-6.789875031E-1,-5.241489410E0
3.230265958E0,-1.507805824E0,-6.289410591E-1,-5.078960419E0
3.240265958E0,-1.192894459E0,-5.099210739E-1,-4.852784634E0
3.250265958E0,-8.114533424E-1,-4.000945091E-1,-4.619533539E0
3.260265924E0,-3.839631081E-1,-3.255753517E-1,-4.438242435E0
3.270265924E0,-2.064895630E-2,-3.055672646E-1,-4.321935177E0
3.280265924E0,2.812089920E-1,-3.623404503E-1,-4.270863533E0
3.290265924E0,5.039277077E-1,-4.742097855E-1,-4.237848759E0
3.300265924E0,6.232523918E-1,-6.608603001E-1,-4.231785297E0
3.310265924E0,6.520481110E-1,-8.756320477E-1,-4.209711552E0
3.320265924E0,6.024150848E-1,-1.070207119E0,-4.133444786E0
3.330265924E0,5.173034668E-1,-1.206724167E0,-3.994944811E0
3.340265924E0,4.407758713E-1,-1.302009821E0,-3.807673931E0
3.350265924E0,3.963794708E-1,-1.394115686E0,-3.631373167E0
3.360265924E0,4.580287933E-1,-1.484264374E0,-3.504966259E0
3.370265924E0,5.536041260E-1,-1.581768036E0,-3.415454388E0
3.380265924E0,6.567602158E-1,-1.682160378E0,-3.343062401E0
3.390265924E0,7.705135345E-1,-1.867525339E0,-3.277300358E0
3.400265924E0,1.015074730E0,-2.376784325E0,-3.224568129E0
3.410265924E0,1.316162109E0,-3.037128925E0,-3.168157816E0
