"Time (s)","X (rad/s)","Y (rad/s)","Z (rad/s)"
3.754833364E-3,-9.255371690E-1,-2.602117062E-1,1.873471290E-1
1.370883337E-2,-9.701592326E-1,-4.103732407E-1,2.951636016E-1
2.366183337E-2,-9.057949185E-1,-5.749049187E-1,3.125622869E-1
3.361583332E-2,-7.535736561E-1,-7.000231743E-1,2.721970379E-1
4.356983333E-2,-5.893127918E-1,-7.807922363E-1,2.223431468E-1
5.352283333E-2,-4.816787541E-1,-7.758083940E-1,2.110771835E-1
6.347683334E-2,-4.701434076E-1,-6.659342647E-1,2.252382338E-1
7.343083335E-2,-5.211544037E-1,-5.873302221E-1,2.858341932E-1
8.338483336E-2,-5.937727094E-1,-5.577353835E-1,3.786894381E-1
9.333783336E-2,-6.546943784E-1,-6.216909289E-1,4.974890351E-1
1.032918334E-1,-6.765167117E-1,-6.968071461E-1,5.603075027E-1
1.132458334E-1,-6.826435328E-1,-6.466169357E-1,5.142158866E-1
1.231988334E-1,-6.406098604E-1,-7.071039081E-1,4.400485754E-1
1.331528333E-1,-5.492477417E-1,-7.160406709E-1,3.181439638E-1
1.431068333E-1,-4.171578884E-1,-6.525996923E-1,1.719412804E-1
1.530608333E-1,-2.526690662E-1,-6.256069541E-1,8.388544619E-2
1.630138333E-1,-1.135786697E-1,-5.518633723E-1,2.209776081E-2
1.729678334E-1,-1.032312401E-2,-3.710389733E-1,2.544135973E-2
1.829218334E-1,8.149123192E-2,-2.255519629E-1,1.869755834E-1
1.928748334E-1,1.988114566E-1,-1.267100573E-1,4.612079561E-1
2.028288334E-1,3.042605519E-1,-4.981723800E-2,7.382217646E-1
2.127828334E-1,4.100743234E-1,-6.203288957E-2,9.625057578E-1
2.227358334E-1,5.315782428E-1,-1.732535958E-1,1.088368297E0
2.326898333E-1,6.188932061E-1,-3.606719375E-1,1.077827692E0
2.426438333E-1,6.416783929E-1,-5.387197137E-1,9.633955956E-1
2.525978333E-1,5.258883834E-1,-5.540893674E-1,7.110059261E-1
2.625508333E-1,3.490716219E-1,-5.062125921E-1,3.854670823E-1
2.725048334E-1,1.561618298E-1,-4.160371721E-1,6.170208380E-2
2.824588334E-1,-1.095771138E-2,-2.810283601E-1,-1.511449963E-1
2.924118334E-1,-1.607469469E-1,-1.933246255E-1,-1.810435057E-1
3.023658334E-1,-2.543188334E-1,-1.814017594E-1,-4.045492038E-2
3.123198334E-1,-2.623663843E-1,-2.417726964E-1,1.877199262E-1
3.222738333E-1,-1.849963963E-1,-3.532527983E-1,4.162967205E-1
3.322268333E-1,-5.820036680E-2,-4.995625913E-1,5.954105854E-1
3.421808333E-1,7.239369303E-2,-6.727172732E-1,6.876617670E-1
3.521304583E-1,1.644471884E-1,-8.441217542E-1,6.943846345E-1
3.620834583E-1,1.806686670E-1,-1.010889053E0,6.215075254E-1
3.720374583E-1,1.327986121E-1,-1.091032147E0,5.036943555E-1
3.819914584E-1,-1.810583845E-2,-9.703922272E-1,3.996980786E-1
3.919454584E-1,-3.072188795E-1,-8.327049613E-1,3.133006096E-1
4.018984584E-1,-6.167815924E-1,-8.706579208E-1,3.212798536E-1
4.118524584E-1,-8.657352328E-1,-8.493071198E-1,3.986262977E-1
4.218064583E-1,-1.080135226E0,-7.162579894E-1,5.626684427E-1
4.317594583E-1,-1.248017907E0,-6.552585363E-1,8.058425188E-1
4.417134583E-1,-1.361648083E0,-7.201069593E-1,1.081355929E0
4.516674583E-1,-1.457714081E0,-8.410440087E-1,1.352332234E0
4.616214584E-1,-1.509734869E0,-9.688703418E-1,1.590979934E0
4.715744584E-1,-1.492066145E0,-1.212082982E0,1.771353960E0
4.815284584E-1,-1.395781875E0,-1.214492679E0,1.898214221E0
4.914824584E-1,-1.252490520E0,-1.044511318E0,2.018952847E0
5.014354584E-1,-1.103785157E0,-7.180051804E-1,2.070562601E0
5.113894584E-1,-9.423552155E-1,-3.098829389E-1,2.031288147E0
5.213434583E-1,-7.672776580E-1,3.855820000E-2,1.920610070E0
5.312964583E-1,-5.959525108E-1,3.000108600E-1,1.780993104E0
5.412504583E-1,-4.257476032E-1,4.383408427E-1,1.647344589E0
5.512044583E-1,-2.330348939E-1,4.081936181E-1,1.552504659E0
5.611584584E-1,-9.507099167E-3,2.527898848E-1,1.507415891E0
5.711114584E-1,2.382299900E-1,6.043774635E-2,1.525287628E0
5.810654584E-1,4.651669264E-1,-1.093802825E-1,1.616160274E0
5.910194584E-1,6.169681549E-1,-2.353150398E-1,1.743809104E0
6.009724584E-1,6.628984213E-1,-1.999897957E-1,1.839141607E0
6.109264583E-1,5.734007955E-1,2.547714673E-2,1.839820147E0
6.208804583E-1,3.807813525E-1,1.940022856E-1,1.729909539E0
6.308344583E-1,1.403018981E-1,2.981925905E-1,1.556618452E0
6.407874583E-1,-1.199680790E-1,4.455656111E-1,1.385336995E0
6.507414583E-1,-3.430288732E-1,5.551283360E-1,1.287718773E0
6.606954584E-1,-4.130852520E-1,5.037872195E-1,1.297028899E0
6.706484584E-1,-3.411109149E-1,4.583206475E-1,1.388873696E0
6.806024584E-1,-1.802478731E-1,4.649815261E-1,1.577652216E0
6.905564584E-1,7.704713382E-3,5.360231996E-1,1.822337031E0
7.005104583E-1,1.169836298E-1,7.211364508E-1,2.015188456E0
7.104634583E-1,4.454245418E-2,8.405738473E-1,2.045325994E0
7.204174583E-1,-1.835468411E-1,6.703011990E-1,1.894912958E0
7.303714583E-1,-4.456421137E-1,3.420245349E-1,1.666384697E0
7.403244583E-1,-6.532111764E-1,1.367532313E-1,1.493206739E0
7.502784583E-1,-7.266654372E-1,9.383532405E-2,1.480637431E0
7.602324584E-1,-6.199028492E-1,2.861036733E-2,1.645962834E0
7.701864584E-1,-4.034307599E-1,-2.414046228E-2,1.944016099E0
7.801394584E-1,-1.657642871E-1,-7.986994833E-2,2.255633831E0
7.900934584E-1,4.973524436E-2,-1.385740191E-1,2.554150343E0
8.000474583E-1,1.697135866E-1,-1.227097660E-1,2.762881994E0
8.100004583E-1,1.773163825E-1,-1.161932796E-1,2.851902246E0
8.199544583E-1,1.043621749E-1,-1.602541059E-1,2.839015722E0
8.299084583E-1,7.036106288E-2,-2.614022791E-1,2.786500931E0
8.398624583E-1,1.505217850E-1,-2.847820818E-1,2.798459530E0
8.498154584E-1,3.642934561E-1,-1.347832680E-1,2.922925711E0
8.597694584E-1,5.669026971E-1,2.468380630E-1,3.150938511E0
8.697234584E-1,6.688647866E-1,6.174198389E-1,3.376206875E0
8.796764584E-1,6.783971190E-1,8.026825190E-1,3.566255808E0
8.896304584E-1,6.545565128E-1,7.102460265E-1,3.694270372E0
8.995844583E-1,5.940361619E-1,5.115166903E-1,3.701035500E0
9.095384583E-1,4.475212991E-1,3.178423047E-1,3.428423882E0
9.194914583E-1,2.380928397E-1,1.949176043E-1,2.614877701E0
9.294454583E-1,1.729966551E-1,2.610995770E-1,1.533250809E0
9.393994584E-1,2.668894529E-1,2.513814270E-1,8.214223981E-1
9.493524584E-1,3.692139685E-1,1.282163560E-1,5.078940392E-1
9.593064584E-1,4.149563611E-1,2.729149461E-1,4.223696887E-1
9.692604584E-1,4.188286066E-1,7.787445784E-1,4.982801378E-1
9.792144584E-1,3.564052880E-1,1.377903938E0,6.101315618E-1
9.891674584E-1,2.320553660E-1,1.730271816E0,6.583096981E-1
9.991214583E-1,9.007237107E-2,1.639325261E0,6.162067056E-1
1.009075458E0,-1.866742037E-2,1.285366297E0,5.871955752E-1
1.019028458E0,-5.626221001E-2,9.072660804E-1,6.402410269E-1
1.028982458E0,-2.343635261E-2,5.725994110E-1,7.525100708E-1
1.038936458E0,2.985472791E-2,2.437939495E-1,8.468576670E-1
1.048890458E0,1.212669387E-1,-1.941437274E-1,8.973165751E-1
1.058843458E0,2.323653847E-1,-6.617845893E-1,9.004663825E-1
1.068797458E0,3.647279441E-1,-1.043588400E0,8.668527603E-1
1.078751458E0,4.806460440E-1,-1.162052274E0,7.882834673E-1
1.088704458E0,5.731853247E-1,-5.935741663E-1,6.995314956E-1
1.098658458E0,5.992246270E-1,1.798620671E-1,5.745058060E-1
1.108612458E0,4.431711137E-1,8.508542776E-1,5.211602449E-1
1.118566458E0,2.143494934E-1,8.237307072E-1,6.072167754E-1
1.128519458E0,-1.052775159E-1,9.204870462E-1,7.438276410E-1
1.138473458E0,-2.979052067E-1,9.726961851E-1,8.148623705E-1
1.148427458E0,-3.451174796E-1,7.936662436E-1,8.059839010E-1
1.158380458E0,-2.511281967E-1,3.148020506E-1,7.757220864E-1
1.168334458E0,-1.327299029E-1,-1.760683209E-1,7.104847431E-1
1.178288458E0,6.674617529E-2,-8.288908005E-1,6.090776920E-1
1.188242458E0,1.838493645E-1,-1.277386546E0,4.599705040E-1
1.198195458E0,2.271305323E-1,-1.622922063E0,3.026849926E-1
1.208149458E0,2.293510735E-1,-1.865611672E0,1.685303897E-1
1.218103458E0,1.323262155E-1,-1.739493370E0,7.730824500E-2
1.228057458E0,-7.497210801E-2,-1.375805140E0,4.841028526E-2
1.238010458E0,-3.387830853E-1,-8.893871307E-1,7.750193775E-2
1.247964458E0,-6.418103576E-1,-4.898147285E-1,1.335324496E-1
1.257918458E0,-8.929495811E-1,-2.231611609E-1,1.262255311E-1
1.267871458E0,-1.109546065E0,-1.039732471E-1,3.351423144E-2
1.277825458E0,-1.283724666E0,-1.685085297E-1,-1.693852246E-1
1.287779458E0,-1.286821365E0,-3.191078901E-1,-2.882831395E-1
1.297733458E0,-1.180348396E0,-5.444654822E-1,-3.124953210E-1
1.307686458E0,-1.062280059E0,-8.553389311E-1,-3.988896012E-1
1.317640458E0,-8.827900887E-1,-1.087150455E0,-5.193421841E-1
1.327594458E0,-6.865478754E-1,-1.157224059E0,-6.505632997E-1
1.337547458E0,-4.594856501E-1,-1.129090190E0,-7.433099747E-1
1.347501458E0,-3.255888522E-1,-1.076778531E0,-7.931411862E-1
1.357455958E0,-2.091992795E-1,-9.506449699E-1,-7.197957635E-1
1.367409958E0,-2.241129242E-2,-8.470658064E-1,-5.408039093E-1
1.377362958E0,2.192371190E-1,-8.667539358E-1,-3.171850443E-1
1.387316958E0,4.335014820E-1,-1.076369286E0,-2.329397053E-1
1.397270958E0,6.574590802E-1,-1.367771149E0,-3.140179813E-1
1.407223958E0,8.587045670E-1,-1.655818343E0,-4.238768518E-1
1.417177958E0,9.829913378E-1,-1.731283784E0,-5.168749690E-1
1.427131958E0,1.027466893E0,-1.589939952E0,-6.215670109E-1
1.437085958E0,9.628995657E-1,-1.339634061E0,-7.493219972E-1
1.447038958E0,8.885478377E-1,-9.293168783E-1,-8.559911847E-1
1.456992958E0,8.111180067E-1,-3.825041652E-1,-9.324211478E-1
1.466946958E0,6.546127796E-1,2.560534179E-1,-9.841452837E-1
1.476900958E0,6.023038030E-1,6.017564535E-1,-1.016963124E0
1.486853958E0,5.596793890E-1,6.767572165E-1,-1.051189303E0
1.496807958E0,5.787659883E-1,6.284622550E-1,-1.040497541E0
1.506761958E0,6.312443614E-1,4.887445569E-1,-1.020265818E0
1.516714958E0,6.619671583E-1,2.490121722E-1,-1.180091262E0
1.526668958E0,7.587994337E-1,5.259447172E-2,-1.257635355E0
1.536622958E0,7.870007157E-1,2.274842560E-2,-1.230527282E0
1.546576958E0,7.170045972E-1,1.227003261E-1,-1.154296160E0
1.556529958E0,5.999707580E-1,2.927771509E-1,-1.046629548E0
1.566483958E0,4.778488576E-1,4.695937335E-1,-9.351397753E-1
1.576437958E0,4.156786203E-1,5.482715964E-1,-8.212800026E-1
1.586390958E0,4.193774760E-1,4.404617548E-1,-7.156305313E-1
1.596344958E0,4.964640737E-1,1.215041429E-1,-6.221308708E-1
1.606298958E0,6.145739555E-1,-3.451413214E-1,-6.163217425E-1
1.616252958E0,8.286051154E-1,-8.248621821E-1,-6.563597918E-1
1.626205958E0,1.059322357E0,-1.336538196E0,-7.048143744E-1
1.636159958E0,1.215250015E0,-1.834205747E0,-7.648673058E-1
1.646113958E0,1.224485636E0,-2.166476727E0,-8.008614779E-1
1.656067958E0,1.095026731E0,-2.283118725E0,-7.748569846E-1
1.666020958E0,8.165948391E-1,-2.126832962E0,-6.806783080E-1
1.675974958E0,4.717426896E-1,-1.724371672E0,-5.257773995E-1
1.685928958E0,1.119994074E-1,-1.123483181E0,-3.145701289E-1
1.695881958E0,-2.400375754E-1,-4.410487413E-1,-7.037248462E-2
1.705835958E0,-5.493077636E-1,1.541251391E-1,1.777526438E-1
1.715789958E0,-7.929570079E-1,5.992914438E-1,4.246743023E-1
1.725743958E0,-9.964177608E-1,8.729264140E-1,6.350216269E-1
1.735696958E0,-1.199969530E0,1.072709918E0,7.802657485E-1
1.745650958E0,-1.410534978E0,1.357862353E0,8.669561744E-1
1.755604958E0,-1.636820793E0,1.606347919E0,9.339135885E-1
1.765557958E0,-1.880259275E0,1.763478875E0,9.720098376E-1
1.775511958E0,-2.054961443E0,1.709855914E0,9.692406058E-1
1.785465958E0,-2.041191816E0,1.356232643E0,9.340234995E-1
1.795419958E0,-1.729713321E0,7.445328236E-1,8.499055505E-1
1.805372958E0,-1.086497068E0,1.249750406E-1,7.872645855E-1
1.815326958E0,-3.101490140E-1,-1.053412482E-1,7.648260593E-1
1.825280958E0,2.557167709E-1,-3.823357821E-2,8.038504124E-1
1.835233958E0,4.299899638E-1,1.992630661E-1,9.266431332E-1
1.845187958E0,2.884203196E-1,6.313252449E-1,1.087729454E0
1.855141958E0,-5.206144229E-2,1.161755204E0,1.214267135E0
1.865095958E0,-4.355856478E-1,1.735032558E0,1.252215624E0
1.875048958E0,-7.333487868E-1,2.244611740E0,1.194900513E0
1.885002958E0,-8.711173534E-1,2.611124754E0,1.100792050E0
1.894956958E0,-8.172124028E-1,2.726477623E0,9.961531162E-1
1.904910958E0,-5.875517726E-1,2.594310999E0,8.981459141E-1
1.914863958E0,-1.987579763E-1,2.293203831E0,8.232783675E-1
1.924817958E0,2.850771248E-1,1.830482006E0,7.745465040E-1
1.934771958E0,7.648239136E-1,1.237433910E0,7.599116564E-1
1.944724958E0,1.109562874E0,6.174555421E-1,7.597598433E-1
1.954678958E0,1.211343288E0,4.172768444E-2,7.595638633E-1
1.964632958E0,1.086635709E0,-4.096059501E-1,7.118123174E-1
1.974586958E0,8.248114586E-1,-6.363881230E-1,5.816416144E-1
1.984539958E0,5.078007579E-1,-6.296833158E-1,3.924251199E-1
1.994493958E0,2.117802054E-1,-4.256931543E-1,1.781507581E-1
2.004447958E0,-2.208782360E-3,-5.235444754E-2,1.361905597E-2
2.014400958E0,-1.180275008E-1,3.652815223E-1,-2.635093033E-2
2.024354958E0,-1.083192080E-1,7.466496825E-1,4.101559147E-2
2.034308958E0,2.572326921E-2,1.050872207E0,1.596743912E-1
2.044262958E0,2.415160090E-1,1.237200499E0,2.880675495E-1
2.054215958E0,4.925303161E-1,1.276146531E0,4.098996818E-1
2.064169958E0,7.446812987E-1,1.171103358E0,5.160670877E-1
2.074123958E0,9.873268604E-1,9.244217873E-1,5.884515643E-1
2.084077958E0,1.206502318E0,5.506721735E-1,6.038129330E-1
2.094030958E0,1.418187261E0,1.311807781E-1,5.629057288E-1
2.103984958E0,1.581717610E0,-2.797470987E-1,5.000567436E-1
2.113938958E0,1.666248560E0,-5.750581026E-1,4.291418195E-1
2.123891958E0,1.665251970E0,-6.988357306E-1,3.616937995E-1
2.133845958E0,1.587793469E0,-6.417338252E-1,2.898857892E-1
2.143799958E0,1.453742743E0,-5.343387127E-1,1.909722686E-1
2.153753958E0,1.300655484E0,-3.435437381E-1,9.209670871E-2
2.163706958E0,1.096380115E0,-2.023160458E-1,-8.330823854E-3
2.173660958E0,8.498876691E-1,-9.279257059E-2,-8.202511072E-2
2.183614958E0,5.707116723E-1,4.809130728E-2,-1.104213297E-1
2.193568958E0,2.588733733E-1,1.786551028E-1,-9.124533832E-2
2.203521958E0,-7.561353594E-2,3.677608371E-1,-5.910337716E-2
2.213475958E0,-4.395410419E-1,4.890519381E-1,-3.064714745E-2
2.223429958E0,-7.343135476E-1,5.832426548E-1,1.498691551E-2
2.233382958E0,-9.448026419E-1,5.735671520E-1,1.853048988E-2
2.243336958E0,-1.061506391E0,5.356570482E-1,-5.761000793E-3
2.253290958E0,-1.113462329E0,4.729384482E-1,-4.288314655E-2
2.263244958E0,-1.087528229E0,3.241130412E-1,-5.591426045E-2
2.273197958E0,-1.006134033E0,2.277607918E-1,3.829432279E-2
2.283151958E0,-1.006554127E0,9.299419075E-2,9.422416240E-2
2.293105958E0,-1.072881460E0,-6.980665773E-2,7.908833027E-2
2.303058958E0,-1.185570478E0,-2.619409561E-1,3.623966500E-2
2.313012958E0,-1.354501843E0,-5.564225316E-1,-3.858175874E-2
2.322966958E0,-1.503282785E0,-8.501822352E-1,-1.325830966E-1
2.332920958E0,-1.560645223E0,-1.125790715E0,-2.336216718E-1
2.342873958E0,-1.483342409E0,-1.325582862E0,-3.358268738E-1
2.352830875E0,-1.293412685E0,-1.330584407E0,-4.242449701E-1
2.362784875E0,-1.153940797E0,-1.197699070E0,-4.535836875E-1
2.372738875E0,-1.115290642E0,-9.132091999E-1,-4.355763495E-1
2.382691875E0,-1.178817153E0,-5.804554820E-1,-4.123400152E-1
2.392645875E0,-1.298883796E0,-3.714926243E-1,-4.292898774E-1
2.402599875E0,-1.385748148E0,-2.641312778E-1,-5.064411163E-1
2.412552875E0,-1.381230712E0,-2.389282137E-1,-6.196221113E-1
2.422506875E0,-1.259712100E0,-2.376701385E-1,-7.231671810E-1
2.432460875E0,-1.052020907E0,-2.649205625E-1,-7.923159003E-1
2.442414875E0,-7.847551703E-1,-2.866884470E-1,-7.881693840E-1
2.452367875E0,-5.065232515E-1,-2.888207734E-1,-7.218332291E-1
2.462321875E0,-2.274471372E-1,-2.581827044E-1,-5.980415344E-1
2.472275875E0,3.902605549E-2,-1.793597788E-1,-4.459968507E-1
2.482228875E0,2.569040656E-1,-8.419571817E-2,-3.145829141E-1
2.492182875E0,3.851987422E-1,1.616250724E-2,-2.591508031E-1
2.502136875E0,4.307054877E-1,9.318379313E-2,-2.791735232E-1
2.512090875E0,4.385765195E-1,1.144207194E-1,-3.609166145E-1
2.522043875E0,4.711983800E-1,7.626427710E-2,-4.725645781E-1
2.531997875E0,5.670262575E-1,2.632639185E-2,-6.003702283E-1
2.541951875E0,7.231255770E-1,-2.804044262E-2,-7.157005668E-1
2.551905875E0,9.069248438E-1,-6.899962574E-2,-7.804897428E-1
2.561858875E0,1.090415597E0,-1.105627790E-1,-7.809613347E-1
2.571812875E0,1.256900311E0,-1.647972167E-1,-7.195935845E-1
2.581766875E0,1.381338358E0,-1.919707954E-1,-6.406434178E-1
2.591719875E0,1.403060675E0,-1.761544198E-1,-5.625920296E-1
2.601673875E0,1.308656693E0,-1.410318464E-1,-5.069391727E-1
2.611627875E0,1.159612536E0,-1.111963466E-1,-5.033861995E-1
2.621581875E0,9.864652157E-1,-8.738555759E-2,-5.292721391E-1
2.631534875E0,7.969300151E-1,-8.180122077E-2,-5.636574626E-1
2.641488875E0,6.127364635E-1,-1.259215325E-1,-5.890533924E-1
2.651442875E0,4.836355448E-1,-1.697263271E-1,-5.975499153E-1
2.661395875E0,4.263754487E-1,-1.878406107E-1,-5.889045000E-1
2.671349875E0,4.142564237E-1,-2.150816470E-1,-5.290787220E-1
2.681303875E0,4.146750569E-1,-2.237819284E-1,-3.962015808E-1
2.691257875E0,4.167709053E-1,-1.010376438E-1,-2.415199876E-1
2.701210875E0,4.683281183E-1,-4.680449516E-2,-1.105356142E-1
2.711164875E0,5.102153420E-1,-4.660178348E-2,-8.486240171E-3
2.721118875E0,4.413933754E-1,-2.869815007E-2,1.177455671E-2
2.731072875E0,2.862352133E-1,4.680653289E-2,-4.198316950E-3
2.741025875E0,9.776890278E-2,1.305783987E-1,-1.363309752E-2
2.750979875E0,-1.420521140E-1,1.442309320E-1,-6.438726932E-2
2.760933875E0,-4.033057988E-1,6.277947873E-2,-1.420013607E-1
2.770886875E0,-6.150983572E-1,-1.914226450E-2,-1.951470226E-1
2.780840875E0,-7.262869477E-1,-7.741835713E-2,-1.974232197E-1
2.790794875E0,-7.412548661E-1,-9.540911019E-2,-1.508109719E-1
2.800748875E0,-6.932060719E-1,-2.638477273E-2,-3.170268610E-2
2.810701875E0,-6.381863356E-1,3.011702597E-1,1.880822480E-1
2.820655875E0,-7.091311216E-1,6.690300107E-1,4.274975061E-1
2.830609875E0,-9.107394218E-1,8.707934022E-1,6.608006954E-1
2.840562875E0,-1.184501886E0,1.047102571E0,7.773643136E-1
2.850516875E0,-1.467410207E0,1.230764151E0,7.937191725E-1
2.860470875E0,-1.666743279E0,1.434309602E0,7.782478333E-1
2.870424875E0,-1.705011368E0,1.612812996E0,7.719433308E-1
2.880377875E0,-1.579574585E0,1.691267848E0,7.931082249E-1
2.890331875E0,-1.314590335E0,1.562788248E0,8.668288589E-1
2.900285875E0,-9.373924136E-1,1.241743088E0,9.932523370E-1
2.910239875E0,-5.135208368E-1,8.523039818E-1,1.115442991E0
2.920192875E0,-2.539094985E-1,3.729113340E-1,1.226963878E0
2.930146875E0,-2.809404731E-1,-7.815633714E-2,1.324057579E0
2.940100875E0,-5.825693011E-1,-4.015163183E-1,1.340163589E0
2.950053875E0,-9.802438617E-1,-5.438062549E-1,1.219653606E0
2.960007875E0,-1.217316389E0,-6.221026778E-1,1.054661989E0
2.969961875E0,-1.208612561E0,-7.460630536E-1,9.055963755E-1
2.979915875E0,-9.319806695E-1,-9.360079765E-1,8.648728728E-1
2.989868875E0,-4.206949770E-1,-1.107445359E0,9.508754611E-1
2.999822875E0,2.123378664E-1,-1.213960052E0,1.141721368E0
3.009776875E0,8.095045686E-1,-1.265850306E0,1.389498472E0
3.019730875E0,1.246040344E0,-1.303056002E0,1.637305617E0
3.029683875E0,1.493927360E0,-1.334266424E0,1.800643086E0
3.039637875E0,1.572606802E0,-1.311453223E0,1.835858822E0
3.049591875E0,1.501011252E0,-1.207901001E0,1.765929580E0
3.059544875E0,1.325059056E0,-9.574429989E-1,1.612238050E0
3.069498875E0,1.120584249E0,-5.857964754E-1,1.401985884E0
3.079452875E0,9.939585328E-1,-1.273887008E-1,1.165327787E0
3.089406875E0,9.605032206E-1,2.695915699E-1,9.451181293E-1
3.099359875E0,1.000946522E0,5.989716053E-1,7.976737618E-1
3.109313875E0,1.094996572E0,8.250294328E-1,7.400200367E-1
3.119267875E0,1.211865067E0,9.305465221E-1,7.473354340E-1
3.129221875E0,1.342861414E0,9.264013171E-1,7.713057995E-1
3.139174875E0,1.456124067E0,8.490349054E-1,7.823669314E-1
3.149128875E0,1.524071097E0,7.302645445E-1,7.644959688E-1
3.159082875E0,1.509869337E0,6.192682385E-1,6.909713745E-1
3.169035875E0,1.448354840E0,6.014637947E-1,6.007798910E-1
3.178989875E0,1.379995227E0,4.578110576E-1,5.338203311E-1
3.188943875E0,1.348497629E0,3.424122632E-1,4.854498804E-1
3.198897875E0,1.318913817E0,2.586065829E-1,4.244866669E-1
3.208850875E0,1.330652475E0,1.859547198E-1,3.816686273E-1
3.218804875E0,1.378600240E0,8.029992878E-2,3.460909128E-1
3.228758875E0,1.444190264E0,-1.665690541E-2,3.063571751E-1
3.238712875E0,1.567334056E0,-2.928576665E-3,2.633063793E-1
3.248665875E0,1.668590307E0,1.091902852E-1,1.815270782E-1
3.258619875E0,1.667822838E0,3.096357584E-1,9.306458384E-2
3.268573875E0,1.536336422E0,5.399070978E-1,4.011507332E-2
3.278526875E0,1.249981880E0,7.310589552E-1,1.751948334E-2
3.288480875E0,8.230802417E-1,8.242036700E-1,4.908708110E-2
3.298434875E0,2.989647686E-1,7.436225414E-1,9.933028370E-2
3.308388875E0,-2.090897858E-1,5.193365812E-1,1.364993751E-1
