"Time (s)","X (rad/s)","Y (rad/s)","Z (rad/s)"
9.675249981E-3,-9.618243575E-1,-1.166138291E0,-7.478862405E-1
1.962824998E-2,-1.052649498E0,-1.085175514E0,-6.822369695E-1
2.958224999E-2,-1.122431278E0,-1.006703377E0,-5.921185017E-1
3.953625000E-2,-1.190504193E0,-9.165040255E-1,-5.120514631E-1
4.949025001E-2,-1.239611506E0,-7.754771709E-1,-4.942360222E-1
5.944425002E-2,-1.245692849E0,-6.032707691E-1,-5.593212247E-1
6.939825002E-2,-1.214398861E0,-3.935628533E-1,-6.955150366E-1
7.935125002E-2,-1.212077856E0,-1.909872442E-1,-8.552851677E-1
8.930525003E-2,-1.264223337E0,-5.509971455E-2,-1.008908510E0
9.925924998E-2,-1.428136706E0,-5.535020679E-2,-1.149971366E0
1.092132500E-1,-1.620079279E0,-7.113742828E-2,-1.225059509E0
1.191672500E-1,-1.766530037E0,-5.018534511E-2,-1.265476465E0
1.291212500E-1,-1.872177958E0,-6.347824633E-2,-1.238122702E0
1.390742500E-1,-1.969934702E0,-7.351180911E-2,-1.193506718E0
1.490282500E-1,-2.026424170E0,-2.285615802E-1,-1.129515529E0
1.589822500E-1,-2.005684853E0,-3.830397129E-1,-1.015909433E0
1.689362500E-1,-1.878025055E0,-4.108950496E-1,-8.773095608E-1
1.788902500E-1,-1.653339624E0,-3.893493712E-1,-7.356953621E-1
1.888432500E-1,-1.379004240E0,-3.817093074E-1,-5.803374648E-1
1.987972500E-1,-1.129880667E0,-3.820164800E-1,-4.482191801E-1
2.087512500E-1,-9.109669328E-1,-3.994607031E-1,-3.489993811E-1
2.187052500E-1,-7.226725817E-1,-4.783552587E-1,-2.939952016E-1
2.286592500E-1,-6.163411140E-1,-5.872820020E-1,-2.453517467E-1
2.386132500E-1,-6.350425482E-1,-4.562650025E-1,-1.121165082E-1
2.485662500E-1,-6.764637232E-1,-3.595221937E-1,1.008053496E-1
2.585202500E-1,-7.924722433E-1,-1.302231848E-1,3.444102108E-1
2.684742500E-1,-1.014768958E0,2.117360085E-1,4.715585709E-1
2.784282500E-1,-1.283631921E0,4.901660085E-1,4.628601074E-1
2.883822500E-1,-1.548676610E0,6.512779593E-1,3.086100817E-1
2.983362500E-1,-1.701926470E0,6.289985776E-1,7.665671408E-2
3.082892500E-1,-1.758863807E0,4.948397279E-1,-7.322119176E-2
3.182432500E-1,-1.760005355E0,2.055712491E-1,-1.060468704E-1
3.281972500E-1,-1.675200701E0,-2.929392159E-1,-3.648243845E-2
3.381512500E-1,-1.430632353E0,-1.026433110E0,7.594591007E-3
3.481052500E-1,-1.064326286E0,-1.926514506E0,2.245583013E-2
3.580592500E-1,-6.543303132E-1,-2.842447042E0,9.820279479E-2
3.680122500E-1,-2.805828452E-1,-3.332190037E0,2.332895100E-1
3.779662500E-1,1.410176698E-2,-2.868974447E0,3.887791336E-1
3.879202500E-1,2.719894946E-1,-1.705225825E0,5.489192605E-1
3.978742500E-1,4.067540467E-1,-5.285182595E-1,6.200590134E-1
4.078282500E-1,3.770701885E-1,3.522846997E-1,4.995507598E-1
4.177812500E-1,2.933567166E-1,1.054068089E0,2.244957685E-1
4.277352500E-1,2.027724981E-1,1.694100857E0,-1.239913702E-1
4.376892500E-1,1.258941591E-1,1.947166800E0,-5.420543551E-1
4.476432500E-1,1.507805884E-1,1.712597132E0,-8.494702578E-1
4.575972500E-1,2.695295811E-1,1.100410223E0,-1.044570208E0
4.675512500E-1,4.070456326E-1,7.690775990E-1,-1.078165531E0
4.775042500E-1,4.389627576E-1,5.485513210E-1,-9.997248054E-1
4.874582500E-1,1.874735057E-1,5.851221085E-1,-7.842904925E-1
4.974122500E-1,-5.004381537E-1,1.833775938E-1,-6.901960969E-1
5.073662500E-1,-1.297173858E0,-2.885286808E-1,-7.291775942E-1
5.173202500E-1,-1.686596870E0,-7.071514130E-1,-6.799751520E-1
5.272742500E-1,-1.766604662E0,-1.075994730E0,-7.276348472E-1
5.372272500E-1,-1.779110432E0,-1.552724004E0,-1.014685154E0
5.471812500E-1,-1.821258664E0,-2.285976410E0,-1.454584002E0
5.571352500E-1,-1.882786751E0,-3.118221760E0,-1.839102149E0
5.670892500E-1,-1.957415938E0,-3.754735947E0,-1.975588322E0
5.770432500E-1,-2.043000221E0,-4.385941505E0,-1.857939243E0
5.869972500E-1,-2.061717749E0,-5.021101475E0,-1.530535817E0
5.969502500E-1,-1.980146289E0,-5.308275223E0,-1.086771846E0
6.069042500E-1,-1.950142264E0,-4.949302197E0,-8.119837046E-1
6.168582500E-1,-2.264126539E0,-4.061313152E0,-8.612141013E-1
6.268122500E-1,-3.115595818E0,-3.415460110E0,-9.379112720E-1
6.367662500E-1,-3.969217300E0,-3.001101971E0,-6.198930144E-1
6.467202500E-1,-4.481528759E0,-2.834082365E0,-1.626471877E-1
6.566732500E-1,-4.402781010E0,-3.031611443E0,4.509112984E-2
6.666272500E-1,-3.775617599E0,-3.663814783E0,1.235497147E-1
6.765812500E-1,-2.911296129E0,-4.331840992E0,2.008315176E-1
6.865352500E-1,-2.169205189E0,-4.868565083E0,1.806165278E-1
6.964892500E-1,-2.012263298E0,-5.527729511E0,2.390075624E-1
7.064432500E-1,-2.488677502E0,-6.085181713E0,4.129825532E-1
7.163962500E-1,-3.037955046E0,-5.869360924E0,8.049404025E-1
7.263502500E-1,-3.470878124E0,-5.011557102E0,1.120428562E0
7.363042500E-1,-3.864267111E0,-4.259033203E0,1.422599435E0
7.462582500E-1,-4.071759224E0,-4.005082607E0,1.783552647E0
7.562122500E-1,-4.017717361E0,-4.066873074E0,2.205682278E0
7.661652500E-1,-3.598923206E0,-4.257833958E0,2.499666452E0
7.761192500E-1,-3.064012527E0,-4.370099545E0,2.816462517E0
7.860732500E-1,-2.590202570E0,-4.413917065E0,3.178077221E0
7.960272500E-1,-2.318329573E0,-4.301393032E0,3.365405560E0
8.059812500E-1,-2.367496252E0,-4.081419945E0,3.335582018E0
8.159352500E-1,-2.657062769E0,-3.926666737E0,3.254220724E0
8.258882500E-1,-2.935893059E0,-3.735990047E0,3.102365971E0
8.358422500E-1,-3.077327967E0,-3.641752958E0,2.896375656E0
8.457962500E-1,-2.970138311E0,-3.647946119E0,2.714960098E0
8.557502500E-1,-2.609790325E0,-3.677309990E0,2.509619951E0
8.657042500E-1,-2.092125416E0,-3.570819616E0,2.238765001E0
8.756582500E-1,-1.544860244E0,-3.338869572E0,1.943474770E0
8.856112500E-1,-9.879639149E-1,-3.017724991E0,1.620287418E0
8.955652500E-1,-5.068033934E-1,-2.660296202E0,1.467207789E0
9.055192500E-1,-2.328253537E-1,-2.450171947E0,1.502661228E0
9.154732500E-1,-4.673601687E-2,-2.216075182E0,1.506971717E0
9.254272500E-1,6.193640456E-2,-1.848062634E0,1.457877994E0
9.353812500E-1,1.586399972E-2,-1.367758274E0,1.445716500E0
9.453342500E-1,-1.883767545E-1,-1.019847155E0,1.457621336E0
9.552882500E-1,-3.778581619E-1,-6.959763169E-1,1.477737784E0
9.652422500E-1,-5.041193962E-1,-3.558783531E-1,1.529234171E0
9.751962500E-1,-5.968582034E-1,-6.974285096E-2,1.539282680E0
9.851502500E-1,-6.181821227E-1,7.448303699E-2,1.478038192E0
9.951065000E-1,-6.177078485E-1,-1.701726466E-1,1.388993502E0
1.005059500E0,-5.564924479E-1,-2.562103271E-1,1.392555952E0
1.015013500E0,-4.225181937E-1,-3.725319803E-1,1.351544261E0
1.024967500E0,-2.909287512E-1,-5.832666159E-1,1.270611286E0
1.034921500E0,-2.213857174E-1,-7.734490633E-1,1.136492252E0
1.044875500E0,-2.152156979E-1,-8.533348441E-1,9.973552823E-1
1.054829500E0,-2.538228631E-1,-8.655074239E-1,7.624316216E-1
1.064782500E0,-2.481274307E-1,-7.650617957E-1,4.268759787E-1
1.074736500E0,-1.938209236E-1,-5.827777386E-1,5.978756025E-2
1.084690500E0,-1.009692848E-1,-3.573179543E-1,-2.527796626E-1
1.094644500E0,-1.984588802E-3,-1.688212752E-1,-4.816684425E-1
1.104598500E0,1.239658818E-1,3.152612597E-3,-6.349970102E-1
1.114551500E0,3.180956244E-1,1.378603131E-1,-7.129123807E-1
1.124505500E0,4.832358360E-1,1.752002239E-1,-8.153279424E-1
1.134459500E0,5.631929040E-1,1.500439495E-1,-9.240607619E-1
1.144413500E0,5.719842911E-1,8.101481944E-2,-9.933394194E-1
1.154367500E0,5.559549332E-1,-3.130314499E-2,-1.045633793E0
1.164321500E0,5.823223591E-1,-1.603207737E-1,-1.123310208E0
1.174274500E0,6.484702229E-1,-2.742352188E-1,-1.318714738E0
1.184228500E0,7.546097040E-1,-3.256118596E-1,-1.631017447E0
1.194182500E0,8.668419719E-1,-3.141399622E-1,-1.961334705E0
1.204136500E0,9.236730337E-1,-2.233517468E-1,-2.265326977E0
1.214090500E0,9.014142156E-1,-1.646817923E-1,-2.486529827E0
1.224044500E0,8.901700974E-1,-1.440175176E-1,-2.590027094E0
1.233997500E0,9.067906737E-1,-1.048280969E-1,-2.601966381E0
1.243951500E0,9.284690619E-1,-2.271937393E-2,-2.547300577E0
1.253905500E0,9.294619560E-1,9.328628331E-2,-2.500655174E0
1.263859500E0,9.289906025E-1,1.368215084E-1,-2.508185387E0
1.273813500E0,9.548373818E-1,1.510339379E-1,-2.611753464E0
1.283767500E0,9.973194003E-1,1.382371932E-1,-2.838907957E0
1.293720500E0,1.064886689E0,9.522413462E-2,-3.149204016E0
1.303674500E0,1.188846469E0,4.988887906E-2,-3.500293970E0
1.313628500E0,1.362160325E0,2.180595137E-2,-3.840520382E0
1.323582500E0,1.553216577E0,5.191555247E-3,-4.158808231E0
1.333536500E0,1.730422497E0,-3.692181036E-2,-4.442950249E0
1.343490500E0,1.863100410E0,-1.126711667E-1,-4.689388752E0
1.353443500E0,1.951637745E0,-2.640777230E-1,-4.877509594E0
1.363397500E0,2.028447151E0,-4.401403666E-1,-4.983541965E0
1.373351500E0,2.083114386E0,-5.606667399E-1,-5.167296886E0
1.383305500E0,2.094175339E0,-6.872310638E-1,-5.342597485E0
1.393259500E0,2.084557295E0,-9.325187206E-1,-5.352183819E0
1.403212500E0,2.067565918E0,-1.137690306E0,-5.267484665E0
1.413166500E0,1.998757839E0,-1.199261546E0,-5.138479710E0
1.423120500E0,1.849391460E0,-1.156772614E0,-4.928346157E0
1.433074500E0,1.629416823E0,-9.982045889E-1,-4.660045147E0
1.443028500E0,1.386829734E0,-7.579088807E-1,-4.361223698E0
1.452982500E0,1.147047400E0,-5.123381019E-1,-4.050295830E0
1.462935500E0,9.330514073E-1,-3.135659099E-1,-3.735771656E0
1.472889500E0,7.911637425E-1,-1.391669661E-1,-3.442044020E0
1.482843500E0,7.228904366E-1,3.075043112E-2,-3.260018110E0
1.492797500E0,6.844757795E-1,1.941089481E-1,-3.123516798E0
1.502751500E0,6.607931256E-1,2.421766073E-1,-2.981866121E0
1.512705500E0,6.728532910E-1,2.097588778E-1,-2.848219156E0
1.522658500E0,7.340093255E-1,1.476616859E-1,-2.739301443E0
1.532612500E0,8.135219216E-1,4.823821038E-2,-2.633014679E0
1.542566500E0,8.696477413E-1,-4.714796320E-2,-2.521845341E0
1.552520500E0,8.984384537E-1,-1.074467823E-1,-2.415401459E0
1.562474500E0,9.067842960E-1,-1.214193255E-1,-2.306931734E0
1.572428500E0,9.039855003E-1,-9.369291365E-2,-2.182549953E0
1.582381500E0,8.767434955E-1,-1.925569773E-2,-2.042716026E0
1.592335500E0,8.260181546E-1,9.879191220E-2,-1.881807804E0
1.602289500E0,7.502157688E-1,2.545953691E-1,-1.702272415E0
1.612243500E0,6.500753760E-1,3.953362703E-1,-1.506760120E0
1.622197500E0,5.582786202E-1,4.850264788E-1,-1.282087564E0
1.632151500E0,4.676036537E-1,5.437519550E-1,-1.036314011E0
1.642104500E0,3.619744182E-1,5.854855776E-1,-7.602947354E-1
1.652058500E0,2.295498699E-1,6.192563176E-1,-4.625644386E-1
1.662012500E0,8.714558184E-2,6.329591274E-1,-1.580745876E-1
1.671966500E0,-4.646142945E-2,6.402482390E-1,1.424286216E-1
1.681920500E0,-1.726097763E-1,6.328185201E-1,4.311499000E-1
1.691874500E0,-2.961505353E-1,6.251096725E-1,7.093088031E-1
1.701827500E0,-4.117053747E-1,6.302331090E-1,9.756076336E-1
1.711781500E0,-5.035793185E-1,6.279814839E-1,1.238311291E0
1.721735500E0,-5.664921999E-1,6.244855523E-1,1.511242390E0
1.731689500E0,-6.347456574E-1,6.154336333E-1,1.776928067E0
1.741643500E0,-7.165313363E-1,6.561185122E-1,2.049107790E0
1.751597500E0,-8.284255862E-1,7.280948758E-1,2.341355085E0
1.761550500E0,-9.885579944E-1,7.634688616E-1,2.670494556E0
1.771504500E0,-1.170894861E0,7.811691165E-1,3.032223940E0
1.781458500E0,-1.361143827E0,8.017928600E-1,3.432187080E0
1.791412500E0,-1.572570920E0,7.747963071E-1,3.846022367E0
1.801366500E0,-1.783495665E0,6.660397649E-1,4.258031845E0
1.811319500E0,-1.958863020E0,5.033318400E-1,4.654793262E0
1.821273500E0,-2.082242727E0,2.848794162E-1,4.965169907E0
1.831227500E0,-2.140464306E0,2.880603075E-2,5.155098915E0
1.841181500E0,-2.129268885E0,-2.073543072E-1,5.271224499E0
1.851135500E0,-2.071632147E0,-3.690492809E-1,5.368875980E0
1.861089500E0,-1.989529133E0,-4.476343691E-1,5.482033730E0
1.871042500E0,-1.899504423E0,-4.386052787E-1,5.628869534E0
1.880996500E0,-1.827178836E0,-3.923666775E-1,5.808269501E0
1.890950500E0,-1.779643059E0,-3.680409789E-1,5.993079185E0
1.900904500E0,-1.749221444E0,-3.708245158E-1,6.143938065E0
1.910858500E0,-1.730855107E0,-4.354211688E-1,6.225409031E0
1.920812500E0,-1.710987329E0,-5.423127413E-1,6.236496449E0
1.930765500E0,-1.669637203E0,-6.566957235E-1,6.166277885E0
1.940719500E0,-1.590684533E0,-7.656201124E-1,6.028391361E0
1.950673500E0,-1.462399244E0,-8.514327407E-1,5.807073593E0
1.960627500E0,-1.275974512E0,-9.094350338E-1,5.509525299E0
1.970581500E0,-1.007310152E0,-9.318034053E-1,5.157577991E0
1.980535500E0,-6.657341719E-1,-9.113767147E-1,4.757407188E0
1.990488500E0,-2.946127951E-1,-9.034873247E-1,4.331093788E0
2.000439875E0,1.045615152E-1,-9.285010695E-1,3.891410589E0
2.010393875E0,5.024819374E-1,-9.588888884E-1,3.466468096E0
2.020347875E0,8.448600173E-1,-1.001287699E0,3.074820280E0
2.030301875E0,1.104812860E0,-1.065056324E0,2.712712765E0
2.040254875E0,1.272634149E0,-1.123236775E0,2.393722773E0
2.050208875E0,1.345892310E0,-1.161330462E0,2.114910603E0
2.060162875E0,1.346589565E0,-1.195549965E0,1.880858064E0
2.070116875E0,1.301255584E0,-1.184628129E0,1.690742254E0
2.080070875E0,1.228206873E0,-1.139234543E0,1.554966331E0
2.090024875E0,1.138676643E0,-1.067341447E0,1.468708634E0
2.099977875E0,1.043582082E0,-9.509710670E-1,1.434333324E0
2.109931875E0,9.223295450E-1,-7.804968357E-1,1.439314723E0
2.119885875E0,7.543559670E-1,-6.005020142E-1,1.449941158E0
2.129839875E0,5.419099331E-1,-4.339767694E-1,1.439502954E0
2.139793875E0,3.069022000E-1,-2.542725205E-1,1.404881358E0
2.149747875E0,6.273622811E-2,-7.844233513E-2,1.343227148E0
2.159700875E0,-1.610923409E-1,4.961176962E-2,1.247779727E0
2.169654875E0,-3.474123478E-1,1.183473170E-1,1.095707417E0
2.179608875E0,-4.826458097E-1,1.440164596E-1,8.983695507E-1
2.189562875E0,-5.703731179E-1,1.348361671E-1,6.659964919E-1
2.199516875E0,-6.451382041E-1,7.177039236E-2,4.123966992E-1
2.209470875E0,-6.993815899E-1,-1.079505030E-2,1.748921424E-1
2.219423875E0,-7.301847935E-1,-1.021332145E-1,-4.957291856E-2
2.229377875E0,-7.497613430E-1,-1.943504363E-1,-2.604032755E-1
2.239331875E0,-7.650436163E-1,-2.618088126E-1,-4.594117403E-1
2.249285875E0,-8.007135391E-1,-2.703792751E-1,-6.613671184E-1
2.259239875E0,-8.577685356E-1,-2.026079595E-1,-8.807761669E-1
2.269193875E0,-9.229946136E-1,-9.209728986E-2,-1.114776731E0
2.279146875E0,-9.678502679E-1,7.522139698E-2,-1.357122302E0
2.289100875E0,-9.756382108E-1,2.762975395E-1,-1.610124230E0
2.299054875E0,-9.472174644E-1,4.635931253E-1,-1.897983909E0
2.309008875E0,-8.881042600E-1,6.226437688E-1,-2.236075163E0
2.318962875E0,-8.023778796E-1,8.094874024E-1,-2.523115873E0
2.328916875E0,-7.095462084E-1,9.612666965E-1,-2.668939352E0
2.338869875E0,-6.150854826E-1,1.032078385E0,-2.742819548E0
2.348823875E0,-5.189495087E-1,1.041796207E0,-2.800332069E0
2.358777875E0,-4.132716060E-1,1.005465269E0,-2.816771030E0
2.368731875E0,-2.821995020E-1,9.353672266E-1,-2.792117357E0
2.378685875E0,-1.228103712E-1,7.738776803E-1,-2.797107935E0
2.388638875E0,6.720637530E-2,5.368725657E-1,-2.951454878E0
2.398592875E0,3.013661504E-1,2.554192841E-1,-3.265755415E0
2.408546875E0,5.537878871E-1,-2.499056747E-3,-3.719189644E0
2.418500875E0,7.918571830E-1,-1.828355342E-1,-4.251115322E0
2.428454875E0,9.792037606E-1,-2.667977214E-1,-4.795350075E0
2.438408875E0,1.089238763E0,-2.421754897E-1,-5.277355194E0
2.448361875E0,1.070415497E0,-1.229319423E-1,-5.678575993E0
2.458315875E0,8.976205587E-1,4.847735912E-2,-5.989052773E0
2.468269875E0,6.131930351E-1,2.380497456E-1,-6.173275948E0
2.478223875E0,3.041417301E-1,4.469387829E-1,-6.268564701E0
2.488177875E0,5.775833130E-2,6.634941697E-1,-6.278583050E0
2.498131875E0,-7.529772818E-2,8.518020511E-1,-6.195580006E0
2.508084875E0,-7.516290992E-2,9.681662321E-1,-6.042539597E0
2.518038875E0,4.277065024E-2,9.717135429E-1,-5.853037357E0
2.527992875E0,2.650976479E-1,8.819368482E-1,-5.642725945E0
2.537946875E0,5.726426840E-1,7.299132347E-1,-5.416811943E0
2.547900875E0,9.336430430E-1,5.260902047E-1,-5.173550129E0
2.557854875E0,1.291901588E0,2.933440506E-1,-4.928862572E0
2.567807875E0,1.593850017E0,7.091230154E-2,-4.673857212E0
2.577761875E0,1.801143527E0,-1.240334883E-1,-4.403346539E0
2.587715875E0,1.912671685E0,-2.843374312E-1,-4.149319649E0
2.597669875E0,1.944099426E0,-3.975513577E-1,-3.922983646E0
2.607623875E0,1.918605328E0,-4.699805677E-1,-3.721694708E0
2.617577875E0,1.850414872E0,-5.257631540E-1,-3.552924871E0
2.627530875E0,1.755974650E0,-5.395458937E-1,-3.412693739E0
2.637484875E0,1.657128453E0,-5.282042623E-1,-3.280179977E0
2.647438875E0,1.544682026E0,-4.930202067E-1,-3.145029783E0
2.657392875E0,1.445401788E0,-4.326391518E-1,-3.001479864E0
2.667346875E0,1.346411586E0,-3.606671691E-1,-2.856612682E0
2.677300875E0,1.243392706E0,-2.777816057E-1,-2.714260817E0
2.687253875E0,1.138647676E0,-1.707691103E-1,-2.573203087E0
2.697207875E0,1.028242826E0,-4.098874331E-2,-2.438914776E0
2.707161875E0,8.996766210E-1,7.672800869E-2,-2.309412718E0
2.717115875E0,7.551524639E-1,1.899421811E-1,-2.187045097E0
2.727069875E0,6.198102236E-1,3.107395172E-1,-2.048957109E0
2.737022875E0,4.904986024E-1,4.348044693E-1,-1.871994257E0
2.746976875E0,3.684123755E-1,5.444703698E-1,-1.666955233E0
2.756930875E0,2.593937516E-1,6.173352599E-1,-1.437824607E0
2.766884875E0,1.662514806E-1,6.491744518E-1,-1.177629948E0
2.776838875E0,8.708156645E-2,6.736630201E-1,-9.022428989E-1
2.786792875E0,8.827337995E-3,6.774882674E-1,-6.359178424E-1
2.796745875E0,-5.952295661E-2,6.466549635E-1,-3.699202240E-1
2.806699875E0,-1.149200797E-1,6.204828024E-1,-8.564947546E-2
2.816653875E0,-1.700538993E-1,5.723706484E-1,2.729840577E-1
2.826607875E0,-2.332854122E-1,4.946495891E-1,7.177951336E-1
2.836561875E0,-2.969275117E-1,4.125770926E-1,1.220036626E0
2.846515875E0,-3.593256772E-1,3.346601427E-1,1.761088610E0
2.856468875E0,-4.203999639E-1,2.214542329E-1,2.289404154E0
2.866422875E0,-4.754079878E-1,5.550486222E-2,2.784641266E0
2.876376875E0,-5.210441947E-1,-1.041369885E-1,3.264788866E0
2.886330875E0,-5.741954446E-1,-1.914307922E-1,3.713241816E0
2.896284875E0,-6.483336091E-1,-2.321925908E-1,4.057275772E0
2.906238875E0,-7.615876198E-1,-2.543241084E-1,4.279203415E0
2.916191875E0,-9.035937190E-1,-2.313503474E-1,4.396501064E0
2.926145875E0,-1.098827362E0,-1.512816697E-1,4.391940594E0
2.936099875E0,-1.328810573E0,-5.442862958E-2,4.268763065E0
2.946053875E0,-1.550627232E0,5.887649953E-2,4.046075344E0
2.956007875E0,-1.744945765E0,1.918779612E-1,3.729507685E0
2.965961875E0,-1.912905216E0,3.356451094E-1,3.348132610E0
2.975914875E0,-2.060420036E0,4.526928961E-1,2.977922678E0
2.985868875E0,-2.165652990E0,5.531973839E-1,2.713861704E0
2.995822125E0,-2.216903925E0,6.174421310E-1,2.597728729E0
3.005776125E0,-2.203040361E0,6.005231142E-1,2.634711981E0
3.015730125E0,-2.113626242E0,5.045235753E-1,2.815615177E0
3.025684125E0,-1.940869093E0,3.259195983E-1,3.104919910E0
3.035637125E0,-1.713321686E0,7.311182469E-2,3.448184252E0
3.045591125E0,-1.460992336E0,-1.975674778E-1,3.832362413E0
3.055545125E0,-1.221598983E0,-4.330787957E-1,4.253729820E0
3.065499125E0,-1.022771358E0,-6.330364943E-1,4.665155888E0
3.075453125E0,-8.526299596E-1,-8.008406758E-1,5.028745651E0
3.085407125E0,-7.020975947E-1,-9.343748093E-1,5.311229229E0
3.095360125E0,-5.425953269E-1,-9.973963499E-1,5.511444092E0
3.105314125E0,-3.707199097E-1,-1.002239108E0,5.648227215E0
3.115268125E0,-1.790421009E-1,-9.864559174E-1,5.717835903E0
3.125222125E0,2.254450694E-2,-9.622342587E-1,5.704036713E0
3.135176125E0,2.184346467E-1,-9.287778139E-1,5.577435017E0
3.145130125E0,3.933635056E-1,-8.917918801E-1,5.351092815E0
3.155083125E0,5.585639477E-1,-8.641386628E-1,5.048429966E0
3.165037125E0,6.997143030E-1,-8.591697812E-1,4.669601440E0
3.174991125E0,8.360303044E-1,-8.724480867E-1,4.259790897E0
3.184945125E0,9.762061238E-1,-8.923726082E-1,3.877855062E0
3.194899125E0,1.116282821E0,-9.205911756E-1,3.525924206E0
3.204853125E0,1.213957906E0,-9.601768255E-1,3.215143442E0
3.214806125E0,1.244004250E0,-9.915717840E-1,2.951260090E0
3.224760125E0,1.206428528E0,-1.035281301E0,2.735332251E0
3.234714125E0,1.097775221E0,-1.091620207E0,2.525106192E0
3.244668125E0,9.309853911E-1,-1.139540672E0,2.299588919E0
3.254622125E0,7.431542277E-1,-1.181337476E0,2.101574183E0
3.264575125E0,5.953596830E-1,-1.222563505E0,1.937457561E0
3.274529125E0,5.262956619E-1,-1.269297719E0,1.791832209E0
3.284483125E0,5.290653706E-1,-1.324530005E0,1.642817020E0
3.294437125E0,5.953924656E-1,-1.356023431E0,1.488143563E0
3.304391125E0,6.812009215E-1,-1.365588427E0,1.331133485E0
3.314345125E0,7.322090268E-1,-1.342844844E0,1.149790883E0
3.324298125E0,7.086219788E-1,-1.259860039E0,9.530913234E-1
