"Time (s)","X (rad/s)","Y (rad/s)","Z (rad/s)"
9.418250003E-3,-2.742138803E-1,-2.680677176E-1,-1.437169909E-1
1.937125000E-2,-3.696439862E-1,-3.829745948E-1,-1.748674512E-1
2.932425000E-2,-4.028243124E-1,-5.335382819E-1,-2.261044234E-1
3.927725001E-2,-4.063452780E-1,-7.048135996E-1,-2.946520746E-1
4.923025001E-2,-3.979959786E-1,-8.034368157E-1,-3.644374311E-1
5.918325001E-2,-3.544082940E-1,-8.894308209E-1,-3.615060747E-1
6.913625001E-2,-3.470795453E-1,-7.584272623E-1,-3.947697580E-1
7.909024996E-2,-2.980893552E-1,-5.034029484E-1,-4.119660556E-1
8.904324996E-2,-2.401082963E-1,-3.689742088E-1,-4.275628030E-1
9.899624996E-2,-2.196317762E-1,-1.841231138E-1,-5.005602837E-1
1.089492500E-1,-2.655372918E-1,-8.506105840E-2,-5.915417671E-1
1.189022500E-1,-3.890951574E-1,-1.880779862E-1,-6.976029873E-1
1.288552500E-1,-5.483095646E-1,-4.724057615E-1,-8.633370399E-1
1.388082500E-1,-7.428050041E-1,-7.463209629E-1,-1.165658236E0
1.487612500E-1,-9.929192662E-1,-9.839717150E-1,-1.409614921E0
1.587152500E-1,-1.262552261E0,-1.198439360E0,-1.517534494E0
1.686682500E-1,-1.536838293E0,-1.496217847E0,-1.571338177E0
1.786212500E-1,-1.752382636E0,-1.928293347E0,-1.522356272E0
1.885742500E-1,-1.872122407E0,-2.310390711E0,-1.395804048E0
1.985272500E-1,-2.064927578E0,-2.760875463E0,-1.282321215E0
2.084802500E-1,-2.349956274E0,-2.866580486E0,-1.338709354E0
2.184342500E-1,-2.704592943E0,-3.167806864E0,-1.214265704E0
2.283872500E-1,-3.163400888E0,-3.625551462E0,-9.553422332E-1
2.383402500E-1,-3.720962524E0,-3.751028061E0,-8.019348383E-1
2.482932500E-1,-4.226944447E0,-3.531917572E0,-7.932137251E-1
2.582462500E-1,-4.519315243E0,-3.378196478E0,-7.040920854E-1
2.681992500E-1,-4.587610245E0,-3.116865396E0,-5.643377304E-1
2.781522500E-1,-4.388070107E0,-2.535107613E0,-4.669983983E-1
2.881052500E-1,-3.784183741E0,-1.829710841E0,-3.862706423E-1
2.980582500E-1,-2.883507967E0,-8.238452077E-1,-3.518724442E-1
3.080122500E-1,-1.929788351E0,4.230329394E-1,-3.161596060E-1
3.179652500E-1,-1.163819313E0,1.449236751E0,-2.966625988E-1
3.279182500E-1,-6.790701151E-1,1.688653588E0,-3.922257423E-1
3.378712500E-1,-3.520855606E-1,9.947656393E-1,-4.837556481E-1
3.478242500E-1,-5.334049836E-2,2.301965356E-1,-4.071961045E-1
3.577772500E-1,1.899243593E-1,1.890895814E-1,-4.298177958E-1
3.677302500E-1,5.597945452E-1,-7.698432207E-1,-3.813105524E-1
3.776832500E-1,8.760371804E-1,-1.296823978E0,-1.114492416E-1
3.876372500E-1,1.288784027E0,-1.600943923E0,3.036037087E-1
3.975902500E-1,1.646892905E0,-2.292901039E0,8.099020123E-1
4.075432500E-1,1.795388818E0,-2.607515574E0,1.176927567E0
4.174962500E-1,1.722447753E0,-2.661298752E0,1.331414461E0
4.274492500E-1,1.482948542E0,-2.268906593E0,1.261094332E0
4.374022500E-1,1.134369850E0,-2.207736969E0,1.099115014E0
4.473552500E-1,8.097985387E-1,-2.421599627E0,9.129276872E-1
4.573082500E-1,7.469180822E-1,-2.480515957E0,8.292367458E-1
4.672612500E-1,9.443506002E-1,-2.241675377E0,8.976155519E-1
4.772152500E-1,1.255947471E0,-1.858911872E0,9.949333072E-1
4.871682500E-1,1.466157079E0,-1.636258483E0,8.890727758E-1
4.971212500E-1,1.527712107E0,-1.721455693E0,4.404936433E-1
5.070742500E-1,1.540273905E0,-2.160344124E0,-1.015484184E-1
5.170272500E-1,1.572868109E0,-2.796589375E0,-3.689148724E-1
5.269802500E-1,1.665723801E0,-3.438760042E0,-2.458470166E-1
5.369332500E-1,1.766128659E0,-3.732227087E0,5.022778362E-2
5.468862500E-1,1.748513222E0,-3.975948811E0,2.078477740E-1
5.568392500E-1,1.589509964E0,-4.079437256E0,2.300063372E-1
5.667932500E-1,1.346148252E0,-4.209356785E0,9.481155872E-2
5.767462500E-1,1.131411672E0,-4.686735630E0,-3.523539379E-2
5.866992500E-1,1.097982287E0,-5.424367905E0,-6.337029487E-2
5.966522500E-1,1.340330243E0,-6.433766842E0,-7.845044136E-2
6.066052500E-1,1.557313681E0,-6.668268681E0,1.221263781E-2
6.165582500E-1,1.738693237E0,-6.294319153E0,3.005568385E-1
6.265112500E-1,1.773815155E0,-6.331039429E0,1.259167641E-1
6.364642500E-1,1.740791678E0,-6.567438126E0,-2.678649314E-2
6.464182500E-1,1.719136357E0,-6.609563351E0,4.892232642E-2
6.563712500E-1,1.725169182E0,-6.562640667E0,2.212126106E-1
6.663242500E-1,1.673004627E0,-6.472402096E0,3.984763324E-1
6.762772500E-1,1.520694017E0,-6.217945576E0,6.207144260E-1
6.862302500E-1,1.005620718E0,-5.429019451E0,9.481138587E-1
6.961832083E-1,5.928897858E-1,-5.123336315E0,1.334113955E0
7.061362083E-1,4.190179110E-1,-4.931973457E0,1.479436040E0
7.160892083E-1,4.105293453E-1,-4.676071167E0,1.379090786E0
7.260422083E-1,4.826092720E-1,-4.517499447E0,1.279847145E0
7.359962083E-1,5.514349341E-1,-4.394284248E0,1.282268405E0
7.459492083E-1,6.358479261E-1,-4.152787685E0,1.393829465E0
7.559022083E-1,6.705430746E-1,-3.691621780E0,1.643816352E0
7.658552083E-1,5.545312166E-1,-3.053572893E0,1.963403463E0
7.758082083E-1,2.711876333E-1,-2.464563847E0,2.274025440E0
7.857612083E-1,-1.280601621E-1,-2.010632992E0,2.508090019E0
7.957142083E-1,-4.947231114E-1,-1.664855719E0,2.674500465E0
8.056672083E-1,-7.401986718E-1,-1.411574721E0,2.820737123E0
8.156212083E-1,-8.530559540E-1,-1.282427907E0,2.940143108E0
8.255742083E-1,-8.843983412E-1,-1.257993460E0,3.012305737E0
8.355272083E-1,-8.434721828E-1,-1.414439559E0,3.061410427E0
8.454802083E-1,-6.971384287E-1,-1.689215779E0,3.130338430E0
8.554332083E-1,-5.041053295E-1,-1.977904797E0,3.188931942E0
8.653862083E-1,-3.352689743E-1,-2.230781555E0,3.251027822E0
8.753392083E-1,-2.287436277E-1,-2.364221811E0,3.359483004E0
8.852922083E-1,-2.088855207E-1,-2.348022938E0,3.498910904E0
8.952452083E-1,-2.645319700E-1,-2.194857121E0,3.653399944E0
9.051992083E-1,-4.115120471E-1,-2.014059067E0,3.828338385E0
9.151522083E-1,-5.828726292E-1,-1.836574793E0,4.021001816E0
9.251052083E-1,-7.517387271E-1,-1.642824054E0,4.232792377E0
9.350582083E-1,-9.124863148E-1,-1.486241460E0,4.460250378E0
9.450112083E-1,-1.041819930E0,-1.384937048E0,4.698623180E0
9.549642083E-1,-1.078257918E0,-1.327497244E0,4.916497231E0
9.649172083E-1,-1.001585722E0,-1.269400835E0,5.125155926E0
9.748702083E-1,-8.492619395E-1,-1.195124269E0,5.279458523E0
9.848232083E-1,-6.959060431E-1,-1.076080322E0,5.342664242E0
9.947772083E-1,-6.012328267E-1,-8.894485831E-1,5.300196171E0
1.004730208E0,-5.824921727E-1,-6.711184382E-1,5.145925522E0
1.014683208E0,-6.501982808E-1,-4.216215312E-1,4.837906361E0
1.024636208E0,-7.742375731E-1,-1.436271369E-1,4.407661438E0
1.034589208E0,-8.739579916E-1,1.171154976E-1,3.944604397E0
1.044542208E0,-8.925269842E-1,2.664711475E-1,3.522160769E0
1.054495208E0,-7.994484305E-1,3.803750873E-1,3.031643629E0
1.064448208E0,-5.871518850E-1,4.404450655E-1,2.544184923E0
1.074402208E0,-2.859179974E-1,4.487064481E-1,2.150792599E0
1.084355208E0,-1.950266957E-2,3.186067045E-1,1.881549239E0
1.094308208E0,1.606564522E-1,1.486006230E-1,1.663601160E0
1.104261208E0,2.820328772E-1,-7.093209308E-3,1.489676833E0
1.114214208E0,3.345901072E-1,-9.555116296E-2,1.347874522E0
1.124167208E0,3.351632059E-1,-1.322940588E-1,1.188300610E0
1.134120208E0,2.953111529E-1,-1.243016496E-1,1.028396487E0
1.144073208E0,2.246200889E-1,-5.693970248E-2,8.780089617E-1
1.154026208E0,1.364012808E-1,6.143887341E-2,7.551288605E-1
1.163980208E0,2.899450250E-2,2.071070820E-1,6.357705593E-1
1.173933208E0,-1.200903207E-1,3.618780077E-1,5.372170806E-1
1.183886208E0,-2.851050794E-1,5.073229671E-1,4.981763065E-1
1.193839208E0,-4.438619614E-1,6.192414761E-1,5.506005883E-1
1.203792208E0,-5.607050657E-1,6.754196882E-1,6.965910792E-1
1.213745208E0,-6.074373722E-1,7.264714241E-1,8.518584371E-1
1.223698208E0,-6.337060928E-1,7.343204021E-1,1.041205525E0
1.233651208E0,-6.745845079E-1,6.670388579E-1,1.255809426E0
1.243605208E0,-7.613304853E-1,5.486046076E-1,1.663996100E0
1.253558208E0,-8.499798775E-1,3.943828046E-1,1.959899187E0
1.263511208E0,-8.562995791E-1,2.426632792E-1,2.045043945E0
1.273464208E0,-8.651782870E-1,1.984052658E-1,2.011590242E0
1.283417208E0,-8.952142000E-1,1.965756565E-1,1.938356519E0
1.293370208E0,-9.135444760E-1,2.773962021E-1,1.835103393E0
1.303323208E0,-8.861474991E-1,3.622507155E-1,1.735838056E0
1.313276208E0,-8.122090697E-1,4.712419212E-1,1.632762313E0
1.323229208E0,-6.946274042E-1,6.125547886E-1,1.497872591E0
1.333183208E0,-5.427606702E-1,7.143874168E-1,1.356436372E0
1.343136208E0,-3.934385180E-1,7.294872403E-1,1.253850698E0
1.353089208E0,-2.509708405E-1,6.711032987E-1,1.189436793E0
1.363042208E0,-1.082919165E-1,5.397110581E-1,1.095988154E0
1.372995208E0,9.701568633E-3,3.511781394E-1,9.606112838E-1
1.382948208E0,1.107433438E-1,9.558629990E-2,8.060906529E-1
1.392901208E0,1.989871860E-1,-1.809227765E-1,6.250990629E-1
1.402854208E0,2.751840353E-1,-4.583124518E-1,3.792681396E-1
1.412808208E0,3.505389690E-1,-7.339515090E-1,1.010346785E-1
1.422761208E0,4.227529466E-1,-9.804812670E-1,-1.800321788E-1
1.432714208E0,4.991207123E-1,-1.171010971E0,-4.295890033E-1
1.442667208E0,5.804640651E-1,-1.311818957E0,-6.441105008E-1
1.452620208E0,6.471232772E-1,-1.367254019E0,-8.353321552E-1
1.462573208E0,6.928592920E-1,-1.348552823E0,-1.017136097E0
1.472526208E0,7.039811611E-1,-1.305310488E0,-1.189304113E0
1.482479208E0,6.859922409E-1,-1.242351413E0,-1.339229822E0
1.492433208E0,6.703360081E-1,-1.179818511E0,-1.497030139E0
1.502386208E0,6.649357677E-1,-1.113833666E0,-1.686052442E0
1.512339208E0,6.681214571E-1,-1.038551092E0,-1.911736131E0
1.522292208E0,6.906609535E-1,-9.391960502E-1,-2.147229433E0
1.532245208E0,7.514798641E-1,-8.085112572E-1,-2.371000528E0
1.542198208E0,8.567734957E-1,-6.531771421E-1,-2.601912022E0
1.552151208E0,9.953097701E-1,-5.007444024E-1,-2.845234156E0
1.562104208E0,1.127277732E0,-3.527942002E-1,-3.093973398E0
1.572057208E0,1.263017416E0,-1.907962412E-1,-3.333955288E0
1.582011208E0,1.375193119E0,-3.082146123E-2,-3.569554090E0
1.591964208E0,1.476147652E0,1.148880720E-1,-3.788540602E0
1.601917208E0,1.568380713E0,2.355574965E-1,-3.952203274E0
1.611870208E0,1.637649775E0,3.242958784E-1,-4.055756092E0
1.621823208E0,1.628587842E0,3.956761956E-1,-4.138416290E0
1.631776208E0,1.550125837E0,4.385014176E-1,-4.186760426E0
1.641729208E0,1.431854248E0,4.210896492E-1,-4.246817589E0
1.651682208E0,1.294551849E0,3.969752491E-1,-4.343172073E0
1.661636208E0,1.147384524E0,3.690527678E-1,-4.460296631E0
1.671589208E0,1.026485801E0,3.494034410E-1,-4.598419189E0
1.681542208E0,9.582953453E-1,3.346251249E-1,-4.741436958E0
1.691495333E0,9.545797110E-1,3.290724456E-1,-4.863254070E0
1.701448333E0,1.000566602E0,3.092096150E-1,-4.952591896E0
1.711401333E0,1.082116127E0,2.587602735E-1,-5.006133556E0
1.721354333E0,1.194965839E0,1.870225817E-1,-5.021522522E0
1.731307333E0,1.328236341E0,9.648789465E-2,-4.983488083E0
1.741261333E0,1.455392838E0,-1.435933169E-2,-4.930493355E0
1.751214333E0,1.564434648E0,-1.301088333E-1,-4.859945774E0
1.761167333E0,1.654889226E0,-2.364841998E-1,-4.782041550E0
1.771120333E0,1.725987673E0,-3.455566168E-1,-4.686856747E0
1.781073333E0,1.771744847E0,-4.407641888E-1,-4.546350956E0
1.791026333E0,1.804045796E0,-4.822325408E-1,-4.374136448E0
1.800979333E0,1.794477820E0,-5.029132366E-1,-4.159670830E0
1.810932333E0,1.707909346E0,-4.895841181E-1,-3.929924488E0
1.820886333E0,1.571856141E0,-4.291222095E-1,-3.693251133E0
1.830839333E0,1.402992249E0,-3.438110352E-1,-3.456567526E0
1.840792333E0,1.233413219E0,-2.336723208E-1,-3.231061459E0
1.850745333E0,1.073038459E0,-1.200988740E-1,-3.027086496E0
1.860698333E0,9.158466458E-1,-2.947118506E-2,-2.876700878E0
1.870651333E0,7.589840889E-1,1.358680427E-2,-2.782492399E0
1.880604333E0,6.086193919E-1,2.168546990E-2,-2.693605185E0
1.890557333E0,5.026921630E-1,1.683239080E-2,-2.585211754E0
1.900510333E0,4.561800659E-1,1.491057314E-2,-2.441780090E0
1.910464333E0,4.424320161E-1,1.149826497E-2,-2.258559704E0
1.920417333E0,4.508450031E-1,1.634128392E-2,-2.062754154E0
1.930370333E0,4.758155942E-1,1.326986030E-2,-1.883181095E0
1.940323333E0,4.990623891E-1,-8.348432370E-3,-1.722589970E0
1.950276333E0,5.186725855E-1,-4.251305759E-2,-1.570469737E0
1.960229333E0,5.406747460E-1,-6.495577842E-2,-1.420703053E0
1.970182333E0,5.585781336E-1,-9.772171080E-2,-1.255873799E0
1.980135333E0,5.884386301E-1,-1.394943446E-1,-1.069593072E0
1.990089333E0,6.279037595E-1,-1.894709617E-1,-8.670681119E-1
2.000042333E0,6.689155698E-1,-2.314971536E-1,-6.396038532E-1
2.009995333E0,7.132649422E-1,-2.555409670E-1,-3.905172944E-1
2.019948333E0,7.551857233E-1,-2.613517940E-1,-1.226561517E-1
2.029901333E0,7.971888781E-1,-2.815825045E-1,1.584487706E-1
2.039854333E0,8.356239200E-1,-3.041772842E-1,4.491533935E-1
2.049807333E0,8.498553038E-1,-3.338614106E-1,7.442106605E-1
2.059760333E0,8.472572565E-1,-3.686351180E-1,1.047503352E0
2.069714333E0,8.252494335E-1,-3.972768784E-1,1.349333048E0
2.079667333E0,7.625716925E-1,-4.194483459E-1,1.627359271E0
2.089620333E0,6.664526463E-1,-4.430812299E-1,1.876384497E0
2.099573333E0,5.174198747E-1,-4.324362874E-1,2.079481363E0
2.109526333E0,3.255100846E-1,-4.177327156E-1,2.264730692E0
2.119479333E0,1.226921156E-1,-3.685811758E-1,2.444127798E0
2.129432333E0,-6.035333127E-2,-2.600701451E-1,2.621794462E0
2.139385333E0,-2.189391255E-1,-1.010372341E-1,2.828180790E0
2.149339333E0,-3.809490502E-1,7.217742503E-2,3.092885733E0
2.159292333E0,-5.353893638E-1,2.426736951E-1,3.389260769E0
2.169245333E0,-6.694235802E-1,4.043264985E-1,3.703182697E0
2.179198333E0,-7.831817865E-1,5.345140696E-1,4.056827545E0
2.189151333E0,-8.716482520E-1,6.132613420E-1,4.437871933E0
2.199104333E0,-9.401721954E-1,6.771873832E-1,4.846506596E0
2.209057333E0,-1.010255337E0,7.304362059E-1,5.277943134E0
2.219010333E0,-1.118748069E0,7.458572984E-1,5.708599091E0
2.228964333E0,-1.230931044E0,7.729256749E-1,6.168179512E0
2.238917333E0,-1.329969049E0,7.824612856E-1,6.659349442E0
2.248870333E0,-1.424545884E0,7.295930386E-1,7.111705303E0
2.258823333E0,-1.503799677E0,5.849763155E-1,7.487742901E0
2.268776333E0,-1.541047931E0,3.826011121E-1,7.768153191E0
2.278729333E0,-1.528050303E0,1.836951673E-1,7.922684669E0
2.288682333E0,-1.472463250E0,2.229190618E-2,7.926542282E0
2.298635333E0,-1.362932682E0,-1.027202904E-1,7.777203083E0
2.308589333E0,-1.145872593E0,-1.702716351E-1,7.476366997E0
2.318542333E0,-7.748371363E-1,-1.911150068E-1,7.078602314E0
2.328495333E0,-2.608753145E-1,-1.665313691E-1,6.628501415E0
2.338448333E0,2.941479981E-1,-1.784795225E-1,6.128939152E0
2.348401333E0,8.889732361E-1,-2.154830843E-1,5.504644394E0
2.358354333E0,1.472692251E0,-2.426235080E-1,4.964090347E0
2.368307333E0,1.972692490E0,-3.001046479E-1,4.534812450E0
2.378260333E0,2.391213179E0,-4.054083228E-1,4.164589882E0
2.388214333E0,2.707422018E0,-5.143941641E-1,3.818214417E0
2.398167333E0,2.915424585E0,-5.851930976E-1,3.508050919E0
2.408120333E0,2.981736422E0,-4.262596369E-1,3.167804718E0
2.418073333E0,2.867537260E0,-1.516829729E-1,2.759076834E0
2.428026333E0,2.633106232E0,4.296187311E-2,2.399322271E0
2.437979333E0,2.356526613E0,2.583459020E-1,2.090695858E0
2.447932333E0,2.052407503E0,5.193639398E-1,1.788946390E0
2.457885333E0,1.712071300E0,7.736326456E-1,1.474756956E0
2.467839333E0,1.386798143E0,9.857414365E-1,1.206290364E0
2.477792333E0,1.105459094E0,1.205807686E0,9.939810038E-1
2.487745333E0,8.593161106E-1,1.427598715E0,8.391288519E-1
2.497698333E0,6.185626984E-1,1.632829189E0,7.174130678E-1
2.507651333E0,3.903372586E-1,1.811473727E0,6.155732870E-1
2.517604333E0,1.822381914E-1,1.951625347E0,5.118947029E-1
2.527557333E0,6.647988688E-3,2.043269157E0,4.192697108E-1
2.537510333E0,-1.445127875E-1,2.072382689E0,3.274151087E-1
2.547464333E0,-2.753097117E-1,2.050512791E0,2.307772338E-1
2.557417333E0,-3.970105648E-1,1.965667844E0,1.175330505E-1
2.567370333E0,-4.915192127E-1,1.831694603E0,6.649413612E-3
2.577323333E0,-5.572223067E-1,1.687677622E0,-8.590922505E-2
2.587276333E0,-6.079102755E-1,1.551438808E0,-1.348264366E-1
2.597229333E0,-6.256154776E-1,1.412361264E0,-1.351126134E-1
2.607182333E0,-5.973476171E-1,1.260533333E0,-1.007530466E-1
2.617135333E0,-5.439445376E-1,1.091150522E0,-5.063758418E-2
2.627089333E0,-5.129498243E-1,8.959770799E-1,1.564876176E-2
2.637042333E0,-5.013845563E-1,6.656514406E-1,8.080726117E-2
2.646995333E0,-4.558450282E-1,4.260215461E-1,1.524212658E-1
2.656948333E0,-3.707979023E-1,1.597905159E-1,2.073516995E-1
2.666901333E0,-2.817897499E-1,-1.507780254E-1,2.334352285E-1
2.676854333E0,-1.953531057E-1,-5.065774322E-1,2.597196996E-1
2.686807333E0,-1.057651788E-1,-8.941941261E-1,2.797112763E-1
2.696760083E0,-1.441585645E-2,-1.323433399E0,2.725896835E-1
2.706714083E0,7.486715168E-2,-1.780571222E0,2.187285721E-1
2.716667083E0,1.377069652E-1,-2.232112408E0,9.784274548E-2
2.726620083E0,1.451172084E-1,-2.666613340E0,-1.047809348E-1
2.736573083E0,1.181460992E-1,-3.065920353E0,-3.771591783E-1
2.746526083E0,8.350636810E-2,-3.392420769E0,-6.864754558E-1
2.756479083E0,7.952265441E-2,-3.649823427E0,-9.898240566E-1
2.766432083E0,1.080256701E-1,-3.859217644E0,-1.294889688E0
2.776385083E0,1.648582816E-1,-4.020222664E0,-1.606268764E0
2.786339083E0,2.170953900E-1,-4.143935204E0,-1.925642490E0
2.796292083E0,2.319835275E-1,-4.239868164E0,-2.239665985E0
2.806245083E0,1.897777468E-1,-4.287420750E0,-2.550372601E0
2.816198083E0,1.155203357E-1,-4.248743057E0,-2.837450504E0
2.826151083E0,3.828227893E-2,-4.110019207E0,-3.060449123E0
2.836104083E0,-4.669300094E-2,-3.879247904E0,-3.215161800E0
2.846057083E0,-1.660479009E-1,-3.607603788E0,-3.318854809E0
2.856010083E0,-3.355360925E-1,-3.296434164E0,-3.408384800E0
2.865964083E0,-5.465319753E-1,-2.980863333E0,-3.478114367E0
2.875917083E0,-7.786727548E-1,-2.707307100E0,-3.548583984E0
2.885870083E0,-1.015156388E0,-2.506182432E0,-3.632786512E0
2.895823083E0,-1.234362721E0,-2.353925705E0,-3.744475126E0
2.905776083E0,-1.427145481E0,-2.279485226E0,-3.870387554E0
2.915729083E0,-1.571401358E0,-2.271965981E0,-4.018974781E0
2.925682083E0,-1.663050890E0,-2.297836065E0,-4.182973862E0
2.935635083E0,-1.703292966E0,-2.339822531E0,-4.321784973E0
2.945589083E0,-1.700772047E0,-2.381017447E0,-4.419245720E0
2.955542083E0,-1.663182974E0,-2.400286198E0,-4.487193108E0
2.965495083E0,-1.588053703E0,-2.405976534E0,-4.529764652E0
2.975448083E0,-1.486115217E0,-2.378889084E0,-4.548623085E0
2.985401083E0,-1.356501818E0,-2.326252699E0,-4.533474445E0
2.995354083E0,-1.185419917E0,-2.230516911E0,-4.491898060E0
3.005307083E0,-9.923117161E-1,-2.123042822E0,-4.443723679E0
3.015260083E0,-7.650462389E-1,-2.026502848E0,-4.370965004E0
3.025214083E0,-5.084618330E-1,-1.980067492E0,-4.254913330E0
3.035167083E0,-2.195618451E-1,-1.988184571E0,-4.114070415E0
3.045120083E0,8.684842288E-2,-2.034635782E0,-3.972588301E0
3.055073083E0,3.896752894E-1,-2.102770567E0,-3.829061747E0
3.065026083E0,6.646578312E-1,-2.164931297E0,-3.675552130E0
3.074979083E0,8.985888362E-1,-2.218348026E0,-3.505500317E0
3.084932083E0,1.043075204E0,-2.273027897E0,-3.330167770E0
3.094886083E0,1.147574067E0,-2.261059761E0,-3.138426304E0
3.104839083E0,1.242669702E0,-2.226609230E0,-2.965922356E0
3.114792083E0,1.306049228E0,-2.185573101E0,-2.806433439E0
3.124745083E0,1.348647356E0,-2.147561550E0,-2.643702030E0
3.134698083E0,1.366501808E0,-2.115927219E0,-2.477999926E0
3.144651083E0,1.374691844E0,-2.084637880E0,-2.308816195E0
3.154604083E0,1.367157340E0,-2.044540644E0,-2.134152889E0
3.164557083E0,1.367374897E0,-1.971814394E0,-1.950588226E0
3.174511083E0,1.358973145E0,-1.918132424E0,-1.753545284E0
3.184464083E0,1.359359384E0,-1.829789042E0,-1.547124743E0
3.194417083E0,1.377301097E0,-1.714528918E0,-1.350791812E0
3.204370083E0,1.409135461E0,-1.619622111E0,-1.172546744E0
3.214323083E0,1.461962700E0,-1.543976903E0,-1.015666842E0
3.224276083E0,1.537875533E0,-1.477253795E0,-8.915448785E-1
3.234229083E0,1.638193369E0,-1.454763293E0,-7.695268989E-1
3.244182083E0,1.750479221E0,-1.445742130E0,-6.581095457E-1
3.254136083E0,1.894577980E0,-1.436925769E0,-5.545471907E-1
3.264089083E0,2.027837276E0,-1.439918637E0,-4.420405924E-1
3.274042083E0,2.149676800E0,-1.470164299E0,-3.240089715E-1
3.283995083E0,2.285476446E0,-1.521038651E0,-2.083130032E-1
3.293948083E0,2.445206165E0,-1.578063130E0,-9.200635552E-2
3.303901083E0,2.619933605E0,-1.616154552E0,4.678561911E-2
3.313854083E0,2.772336245E0,-1.668588996E0,2.321360707E-1
3.323807083E0,2.895456553E0,-1.714931965E0,4.417846501E-1
3.333761083E0,3.022842884E0,-1.736116886E0,6.409761310E-1
