"Time (s)","Acceleration x (m/s^2)","Acceleration y (m/s^2)","Acceleration z (m/s^2)"
3.983321630E-1,4.867412090E0,2.521094322E0,7.020098686E0
4.083321630E-1,7.192481041E0,4.932055473E-1,6.773495674E0
4.183321630E-1,9.021651268E0,-1.211466074E0,6.665756702E0
4.283321630E-1,1.048211479E1,-2.628833532E0,6.593930721E0
4.383321630E-1,1.162175465E1,-3.897760391E0,6.423942566E0
4.483321630E-1,1.248845577E1,-5.011363506E0,6.206069946E0
4.583321630E-1,1.307742882E1,-6.033687592E0,5.933131218E0
4.683321630E-1,1.353232765E1,-6.924330711E0,5.655403614E0
4.783321630E-1,1.387469769E1,-7.731176376E0,5.394435883E0
4.883321630E-1,1.424819374E1,-8.401553154E0,5.214870453E0
4.983321630E-1,1.488535023E1,-8.923488617E0,5.126285076E0
5.083321630E-1,1.545756435E1,-9.347262383E0,5.042488098E0
5.183321630E-1,1.587415600E1,-9.706393242E0,4.908412933E0
5.283321630E-1,1.607526970E1,-9.967360497E0,4.711789131E0
5.383321630E-1,1.603456688E1,-1.019241619E1,4.448426723E0
5.483321630E-1,1.591246319E1,-1.039352894E1,4.192247391E0
5.583321630E-1,1.555093861E1,-1.056351757E1,3.991134167E0
5.683321630E-1,1.505533886E1,-1.065928555E1,3.825934410E0
5.783322210E-1,1.428889465E1,-1.066646767E1,3.667917013E0
5.883322210E-1,1.355387497E1,-1.059224796E1,3.545812607E0
5.983322210E-1,1.283800888E1,-1.036479855E1,3.452438831E0
6.083322210E-1,1.221791077E1,-1.000806236E1,3.402160645E0
6.183322210E-1,1.171752262E1,-9.560346603E0,3.416525841E0
6.283322210E-1,1.129135418E1,-9.083900452E0,3.497928619E0
6.383322210E-1,1.091307068E1,-8.559570312E0,3.663128614E0
6.483322210E-1,1.057788277E1,-8.061576843E0,3.854664803E0
6.583322210E-1,1.034085655E1,-7.554005623E0,4.053383350E0
6.683322210E-1,1.022832870E1,-7.103895664E0,4.218583584E0
6.783322210E-1,1.020438671E1,-6.704063892E0,4.290409565E0
6.883322210E-1,1.014692593E1,-6.323386192E0,4.283226967E0
6.983322210E-1,9.991303444E0,-5.947496414E0,4.086902142E0
7.083322210E-1,9.814131737E0,-5.612308025E0,3.840299606E0
7.183322210E-1,9.565135002E0,-5.267542839E0,3.507505417E0
7.283322210E-1,9.265859604E0,-4.913201332E0,3.150769472E0
7.383322210E-1,8.954613686E0,-4.541800499E0,2.820369720E0
7.483322210E-1,8.643367767E0,-4.254496574E0,2.545036316E0
7.583322210E-1,8.394370079E0,-3.924096584E0,2.370259762E0
7.683322210E-1,8.178892136E0,-3.622427225E0,2.257732153E0
7.783322210E-1,7.944260597E0,-3.430891037E0,2.164358377E0
7.883322210E-1,7.764695168E0,-3.272873640E0,2.090138197E0
7.983322210E-1,7.565976620E0,-3.234566450E0,1.996764183E0
8.083322210E-1,7.357681274E0,-3.236960649E0,1.903390408E0
8.183322210E-1,7.125443459E0,-3.251325846E0,1.793257117E0
8.283322540E-1,6.936301708E0,-3.280056238E0,1.680729628E0
8.383322540E-1,6.759130478E0,-3.342305660E0,1.537077546E0
8.483322540E-1,6.555623531E0,-3.423708439E0,1.367089152E0
8.583322540E-1,6.390423775E0,-3.505111217E0,1.156399369E0
8.683322540E-1,6.385635376E0,-3.598485231E0,9.696516991E-1
8.783322200E-1,6.553229332E0,-3.734954596E0,8.403648138E-1
8.883322200E-1,6.804620743E0,-3.890577793E0,7.781155705E-1
8.983322200E-1,7.087136269E0,-4.027047157E0,8.140285611E-1
9.083322200E-1,7.372046471E0,-4.141968727E0,8.786720037E-1
9.183322200E-1,7.678503990E0,-4.273650169E0,8.786720037E-1
9.283322200E-1,7.977779388E0,-4.429273129E0,8.020575643E-1
9.383322200E-1,8.403946877E0,-4.580107689E0,6.177040339E-1
9.483322200E-1,8.818143845E0,-4.730942726E0,3.950432837E-1
9.583322200E-1,9.217975616E0,-4.925172329E0,1.244984865E-1
9.683322200E-1,9.510068893E0,-5.147832870E0,-1.460463107E-1
9.783322200E-1,9.711181641E0,-5.437531471E0,-3.854664862E-1
9.883322200E-1,9.897929192E0,-5.765536785E0,-5.339069963E-1
9.983322200E-1,1.013495541E1,-6.151003361E0,-5.506663918E-1
1.008332220E0,1.038395214E1,-6.534075737E0,-4.788403511E-1
1.018332220E0,1.062816048E1,-7.012916088E0,-3.160346150E-1
1.028332220E0,1.084603310E1,-7.549217224E0,-1.532289088E-1
1.038332220E0,1.113812542E1,-8.171710014E0,1.436521020E-2
1.048332220E0,1.139430523E1,-8.755894661E0,1.867477298E-1
1.058332220E0,1.172709942E1,-9.450213432E0,2.466027737E-1
1.068332220E0,1.209820080E1,-1.017086792E1,2.681505978E-1
1.078332253E0,1.240705204E1,-1.086279202E1,2.226607651E-1
1.088332253E0,1.256507015E1,-1.150443840E1,2.250549644E-1
1.098332253E0,1.247409058E1,-1.195454884E1,2.992752194E-1
1.108332253E0,1.225142956E1,-1.221551609E1,3.734954596E-1
1.118332253E0,1.183483791E1,-1.229931355E1,5.195417404E-1
1.128332219E0,1.147570801E1,-1.222030449E1,6.224924326E-1
1.138332219E0,1.125783539E1,-1.194736576E1,7.805097699E-1
1.148332219E0,1.112615490E1,-1.166245556E1,9.074024558E-1
1.158332219E0,1.101841545E1,-1.130571938E1,1.043871999E0
1.168332219E0,1.087236881E1,-1.094419479E1,1.199495077E0
1.178332219E0,1.064492035E1,-1.056830597E1,1.379060149E0
1.188332219E0,1.041747093E1,-1.024987698E1,1.532289028E0
1.198332219E0,1.017565632E1,-9.964966774E0,1.632845521E0
1.208332219E0,9.871592522E0,-9.708786964E0,1.793257117E0
1.218332219E0,9.534010887E0,-9.476549149E0,1.900996208E0
1.228332219E0,9.162909508E0,-9.201216698E0,1.948880196E0
1.238332219E0,8.696040154E0,-8.846874237E0,1.982398987E0
1.248332219E0,8.236352921E0,-8.430283546E0,1.934514999E0
1.258332219E0,7.731176376E0,-7.898770809E0,1.889025092E0
1.268332219E0,7.307403088E0,-7.372046471E0,1.838746905E0
1.278332219E0,6.924330711E0,-6.826168537E0,1.798045516E0
1.288332219E0,6.562806129E0,-6.330568790E0,1.783680320E0
1.298332219E0,6.141426563E0,-5.815814972E0,1.814804912E0
1.308332219E0,5.758354187E0,-5.363311291E0,1.874659896E0
1.318332219E0,5.408801079E0,-4.956296921E0,1.910573006E0
1.328332219E0,5.044882298E0,-4.620809078E0,1.936909199E0
1.338332219E0,4.659116745E0,-4.350264549E0,1.927332401E0
1.348332219E0,4.273650169E0,-4.146757126E0,1.881842494E0
1.358332219E0,3.892971992E0,-4.007893562E0,1.802833915E0
1.368332219E0,3.569754839E0,-3.904942989E0,1.687912226E0
1.378332185E0,3.313575268E0,-3.849876404E0,1.517923832E0
1.388332185E0,3.126827478E0,-3.809175014E0,1.338358760E0
1.398332185E0,3.009511471E0,-3.770867586E0,1.137245774E0
1.408332185E0,2.937685490E0,-3.744531393E0,9.600749016E-1
1.418332185E0,2.882618904E0,-3.749319792E0,7.900865674E-1
1.428332185E0,2.839523315E0,-3.775655985E0,6.320692301E-1
1.438332185E0,2.794033289E0,-3.842693806E0,4.668693244E-1
1.448332185E0,2.748543501E0,-3.969586372E0,3.112462163E-1
1.458332185E0,2.688688517E0,-4.177882195E0,1.675941199E-1
1.468332185E0,2.604891539E0,-4.412513733E0,1.197100803E-2
1.478332185E0,2.545036316E0,-4.687847137E0,-1.556231081E-1
1.488332185E0,2.573766708E0,-5.023334503E0,-3.136404157E-1
1.498332185E0,2.710236311E0,-5.475838661E0,-4.764461517E-1
1.508332185E0,2.954444885E0,-5.964255810E0,-6.272808313E-1
1.518332185E0,3.342305660E0,-6.577171326E0,-7.685387731E-1
1.528332185E0,3.687070608E0,-7.240365028E0,-7.948749661E-1
1.542175345E0,4.010287762E0,-7.910741806E0,-8.044517636E-1
1.552175378E0,4.259284973E0,-8.502109528E0,-7.781155705E-1
1.562175378E0,4.479551315E0,-9.074323654E0,-7.469909191E-1
1.572175378E0,4.695029736E0,-9.699210167E0,-6.105214357E-1
1.582175411E0,5.085583687E0,-1.055633450E1,-4.572925270E-1
1.592175411E0,5.602731228E0,-1.145655441E1,-3.519476354E-1
1.602175411E0,6.182127953E0,-1.234001446E1,-2.657563984E-1
1.612175411E0,6.735188484E0,-1.306306362E1,-2.346317619E-1
1.622175411E0,7.319374084E0,-1.364724922E1,-1.364694983E-1
1.632175411E0,7.898770809E0,-1.409257030E1,-1.915361360E-2
1.642175411E0,8.463802338E0,-1.438945103E1,2.274491638E-1
1.652175411E0,8.937853813E0,-1.465281391E1,5.650315881E-1
1.662175411E0,9.471760750E0,-1.487816811E1,1.024718285E0
1.672175411E0,9.984120369E0,-1.499069500E1,1.467645645E0
1.682175411E0,1.047972012E1,-1.497632980E1,1.814804912E0
1.692175411E0,1.094658947E1,-1.503379059E1,2.152387381E0
1.702175411E0,1.120995140E1,-1.500745487E1,2.286462545E0
1.712175411E0,1.141585255E1,-1.490689850E1,2.262520552E0
1.722175411E0,1.160978317E1,-1.460492992E1,2.068590164E0
1.732175411E0,1.180131912E1,-1.419073296E1,1.790862918E0
1.742175411E0,1.195215416E1,-1.366161442E1,1.414973259E0
1.752175411E0,1.209341240E1,-1.310615921E1,1.027112484E0
1.762175411E0,1.203116322E1,-1.219396877E1,6.655880809E-1
1.772175411E0,1.185877991E1,-1.125065327E1,3.878606856E-1
1.782175411E0,1.151640987E1,-1.022593498E1,2.394201756E-1
1.792175411E0,1.117403889E1,-9.308955193E0,1.460463107E-1
1.802175411E0,1.074787045E1,-8.466196060E0,1.460463107E-1
1.812175411E0,1.021396351E1,-7.719205379E0,2.873041928E-1
1.822175411E0,9.672874451E0,-7.101501465E0,4.381389022E-1
1.832175444E0,9.158121109E0,-6.596324921E0,5.817909837E-1
1.842175444E0,8.724770546E0,-6.179733753E0,6.895300746E-1
1.852175410E0,8.375216484E0,-5.827786446E0,7.852981687E-1
1.862175410E0,8.140584946E0,-5.504569054E0,8.619126081E-1
1.872175410E0,7.984961987E0,-5.229235649E0,9.265560508E-1
1.882175376E0,7.946654797E0,-4.994604111E0,1.010353088E0
1.892175376E0,7.958625793E0,-4.795586109E0,1.094150186E0
1.902175376E0,8.030451775E0,-4.618414879E0,1.206677675E0
1.912175376E0,8.116642952E0,-4.479551315E0,1.319205165E0
1.922175376E0,8.205228806E0,-4.328716755E0,1.455674648E0
1.932175376E0,8.257901192E0,-4.165910721E0,1.592144132E0
1.942175376E0,8.250718117E0,-4.007893562E0,1.711854219E0
1.952175376E0,8.226776123E0,-3.854664803E0,1.798045516E0
1.962175376E0,8.147768021E0,-3.694253206E0,1.814804912E0
1.972175376E0,8.047211647E0,-3.538630009E0,1.757344007E0
1.982175376E0,7.963414192E0,-3.397372246E0,1.613691926E0
1.992175376E0,7.903559208E0,-3.282450438E0,1.419761658E0
2.002175376E0,7.927501202E0,-3.251325846E0,1.189918280E0
2.012175376E0,7.994538784E0,-3.303998232E0,9.983820915E-1
2.022175376E0,8.193257332E0,-3.485957623E0,9.265560508E-1
2.032175376E0,8.425495148E0,-3.725377798E0,9.337386489E-1
2.042175376E0,8.655338287E0,-4.082113743E0,1.003170490E0
2.052175376E0,8.899546623E0,-4.484339714E0,1.091755986E0
2.062175376E0,9.265859604E0,-4.975450516E0,1.204283476E0
2.072175376E0,9.711181641E0,-5.494992256E0,1.314416766E0
2.082175409E0,1.033846188E1,-6.103119373E0,1.417367458E0
2.092175409E0,1.107827091E1,-6.751947880E0,1.517923832E0
2.102175409E0,1.194975948E1,-7.577947617E0,1.637633920E0
2.112175409E0,1.271351051E1,-8.341697693E0,1.754949808E0
2.122175409E0,1.333600235E1,-9.036016464E0,1.865083098E0
2.132175375E0,1.387469769E1,-9.663297653E0,1.944091797E0
2.142175375E0,1.442297077E1,-1.032888508E1,1.932120800E0
2.152175375E0,1.491886902E1,-1.091067600E1,1.879448295E0
2.162175375E0,1.534743118E1,-1.140388203E1,1.726219416E0
2.172175375E0,1.570416737E1,-1.186596298E1,1.505952835E0
2.182175375E0,1.595555878E1,-1.239986992E1,1.209071875E0
2.192175375E0,1.606808662E1,-1.295771885E1,9.217676520E-1
2.202175375E0,1.600823021E1,-1.364724922E1,6.296750307E-1
2.212175375E0,1.583824253E1,-1.437269211E1,4.189853072E-1
2.222175375E0,1.554375553E1,-1.523729801E1,3.854664862E-1
2.232175375E0,1.523250961E1,-1.603696060E1,5.434837937E-1
2.242175375E0,1.482310104E1,-1.671691513E1,1.010353088E0
2.252175375E0,1.441099930E1,-1.716223717E1,1.563413739E0
2.262175375E0,1.386990929E1,-1.732743645E1,2.181117773E0
2.272175375E0,1.330966663E1,-1.738968468E1,2.707842112E0
2.282175375E0,1.268238544E1,-1.721969795E1,3.157952070E0
2.292175375E0,1.210059452E1,-1.698506546E1,3.529053211E0
2.302175375E0,1.145894814E1,-1.665227127E1,3.847482204E0
2.312175375E0,1.079814911E1,-1.621652603E1,4.115632534E0
2.322175375E0,1.009664822E1,-1.566586018E1,4.268861771E0
2.332175408E0,9.438241959E0,-1.515828991E1,4.323928356E0
2.342175408E0,8.787019730E0,-1.465281391E1,4.254496574E0
2.352175408E0,8.140584946E0,-1.418594456E1,4.103661537E0
2.362175408E0,7.407959461E0,-1.362091255E1,3.742137194E0
2.372175408E0,6.749553680E0,-1.306066990E1,3.327940464E0
2.382175374E0,6.069600582E0,-1.245254230E1,2.777273893E0
2.392175374E0,5.461473465E0,-1.189469337E1,2.264914751E0
2.402175374E0,4.865017891E0,-1.132726765E1,1.752555609E0
2.412175707E0,4.333505154E0,-1.075744724E1,1.292868972E0
2.422175707E0,3.869029999E0,-1.014692593E1,9.050082564E-1
2.432175707E0,3.469198227E0,-9.545981407E0,5.961562395E-1
2.442175707E0,3.131615877E0,-8.968978882E0,3.639186621E-1
2.452175707E0,2.861071110E0,-8.449437141E0,2.011129409E-1
2.462175707E0,2.628833532E0,-7.987356186E0,9.816227108E-2
2.472175707E0,2.410961151E0,-7.613860607E0,3.591302410E-2
2.482175707E0,2.197877169E0,-7.295432091E0,3.591302410E-2
2.492175707E0,2.030282974E0,-7.005733490E0,7.900865376E-2
2.502175707E0,1.944091797E0,-6.763918877E0,1.819593310E-1
2.512175707E0,1.915361404E0,-6.591536522E0,3.040636182E-1
2.522175707E0,1.975216389E0,-6.471826553E0,4.405331016E-1
2.532175707E0,2.114080191E0,-6.388029575E0,5.722141862E-1
2.542175707E0,2.248155355E0,-6.316203594E0,6.607996821E-1
2.552175707E0,2.279279947E0,-6.220435143E0,6.895300746E-1
2.562175707E0,2.236184359E0,-6.105513573E0,5.961562395E-1
2.572175707E0,2.173935175E0,-5.973832607E0,4.261679053E-1
2.582175740E0,2.161964178E0,-5.729623795E0,2.513911724E-1
2.592175740E0,2.269703150E0,-5.437531471E0,1.340752989E-1
2.602175740E0,2.588132143E0,-5.169380665E0,7.900865376E-2
2.612175740E0,3.019088268E0,-4.965873718E0,5.746084079E-2
2.622175740E0,3.665522814E0,-4.932354927E0,1.915361360E-2
2.632175706E0,4.311957359E0,-5.020940304E0,-5.027823523E-2
2.642175706E0,4.961085320E0,-5.200505257E0,-1.771709323E-1
2.652175706E0,5.511751652E0,-5.346551895E0,-3.471592367E-1
2.662175706E0,5.973832607E0,-5.447108269E0,-5.578489900E-1
2.672175706E0,6.383241177E0,-5.526116848E0,-7.254431248E-1
2.682175706E0,6.780678272E0,-5.605125427E0,-7.852981687E-1
2.692175739E0,7.120655060E0,-5.722441196E0,-7.733271718E-1
2.702175739E0,7.384017467E0,-5.945102215E0,-6.679822803E-1
2.712175405E0,7.563582420E0,-6.201281548E0,-5.123591423E-1
2.722175405E0,7.649773598E0,-6.581959724E0,-2.657563984E-1
2.732175405E0,7.707234383E0,-7.017704487E0,2.873042040E-2
2.742175005E0,7.779060364E0,-7.585130215E0,3.758896589E-1
2.752175005E0,7.889194012E0,-8.159738541E0,7.230489254E-1
2.762175005E0,8.066365242E0,-8.729558945E0,1.098938584E0
2.772175005E0,8.243535995E0,-9.225158691E0,1.448492050E0
2.782175005E0,8.442254066E0,-9.672874451E0,1.764526606E0
2.792175005E0,8.629002571E0,-1.005594635E1,2.020706177E0
2.802175005E0,8.882787704E0,-1.039113426E1,2.252943754E0
2.812175005E0,9.131784439E0,-1.065210247E1,2.442085743E0
2.822175005E0,9.364022255E0,-1.080054283E1,2.573766708E0
2.832175038E0,9.536404610E0,-1.089631081E1,2.655169725E0
2.842175038E0,9.646537781E0,-1.088194561E1,2.707842112E0
2.852175038E0,9.730335236E0,-1.079336071E1,2.748543501E0
2.862175504E0,9.766247749E0,-1.060900688E1,2.717418909E0
2.872175104E0,9.814131737E0,-1.040549946E1,2.667140722E0
2.882175070E0,9.950601578E0,-1.014213753E1,2.607285738E0
2.892175070E0,1.012059021E1,-9.823708534E0,2.559401512E0
2.902175070E0,1.029297256E1,-9.438241959E0,2.545036316E0
2.912175070E0,1.045338345E1,-9.057564735E0,2.545036316E0
2.922174670E0,1.059464169E1,-8.655338287E0,2.549824715E0
2.932174670E0,1.070716953E1,-8.255506516E0,2.557007313E0
2.942174336E0,1.073350525E1,-7.850886822E0,2.566584110E0
2.952174336E0,1.067365074E1,-7.474997044E0,2.583343744E0
2.962174336E0,1.047972012E1,-7.111078262E0,2.592920542E0
2.972174336E0,1.025945377E1,-6.809409142E0,2.585737944E0
2.982174336E0,9.976937294E0,-6.553229332E0,2.552218914E0
2.992174936E0,9.715970039E0,-6.323386192E0,2.516305923E0
3.002174936E0,9.488520622E0,-6.083965778E0,2.475604534E0
3.012174936E0,9.301773071E0,-5.875670433E0,2.413355350E0
3.022174936E0,9.177274704E0,-5.710470200E0,2.319981337E0
3.032174936E0,9.105448723E0,-5.590760231E0,2.209848166E0
3.042175336E0,9.040804863E0,-5.554847240E0,2.066195965E0
3.052175336E0,8.976161003E0,-5.588366032E0,1.910573006E0
3.062175336E0,8.957007408E0,-5.724835396E0,1.771709204E0
3.072175336E0,8.983344078E0,-5.909189224E0,1.668758631E0
3.082175336E0,9.088688850E0,-6.151003361E0,1.635239720E0
3.092175336E0,9.222764015E0,-6.380846977E0,1.647210717E0
3.102175369E0,9.399934769E0,-6.601113319E0,1.723825216E0
3.112175369E0,9.593865395E0,-6.802226067E0,1.807622313E0
3.122175369E0,9.835680008E0,-7.005733490E0,1.891419291E0
3.132175335E0,1.011580181E1,-7.161356449E0,1.970427990E0
3.142176035E0,1.050845051E1,-7.285854816E0,2.054224968E0
3.152176035E0,1.094658947E1,-7.393594265E0,2.145204782E0
3.162175568E0,1.142064095E1,-7.537246227E0,2.229001760E0
3.172175668E0,1.188751030E1,-7.759906769E0,2.296039343E0
3.182175668E0,1.243338871E1,-8.102277756E0,2.363077164E0
3.192175668E0,1.294095993E1,-8.449437141E0,2.437297344E0
3.202175668E0,1.335994434E1,-8.731952667E0,2.561795712E0
3.212175668E0,1.369992161E1,-8.966584206E0,2.676717520E0
3.222176068E0,1.385793877E1,-9.031228065E0,2.767697096E0
3.232176068E0,1.390582275E1,-8.988132477E0,2.822763920E0
3.242176401E0,1.385554409E1,-8.870816231E0,2.798821688E0
3.252176401E0,1.374062252E1,-8.794201851E0,2.693476915E0
3.262176401E0,1.349162579E1,-8.782231331E0,2.477998734E0
3.272176434E0,1.320671558E1,-8.822932243E0,2.212242365E0
3.282176434E0,1.286673927E1,-8.949825287E0,1.879448295E0
3.292175800E0,1.248606110E1,-9.095871925E0,1.534683347E0
3.302175800E0,1.208144093E1,-9.299378395E0,1.161187768E0
3.312175800E0,1.170555115E1,-9.510068893E0,8.379706144E-1
3.322175300E0,1.139909363E1,-9.739912033E0,6.105214357E-1
3.332175333E0,1.120755768E1,-9.988908768E0,4.908113480E-1
3.342175333E0,1.118122101E1,-1.032170296E1,5.339069963E-1
3.352175333E0,1.115249062E1,-1.060900688E1,6.655880809E-1
3.362175333E0,1.095855999E1,-1.079096603E1,9.050082564E-1
3.372175333E0,1.061140156E1,-1.089870548E1,1.146822572E0
3.382175333E0,9.981725693E0,-1.092743587E1,1.362300754E0
3.392175333E0,9.265859604E0,-1.088434029E1,1.532289028E0
3.402175299E0,8.435071945E0,-1.074787045E1,1.640028119E0
3.412175299E0,7.606678009E0,-1.056351757E1,1.699883223E0
3.422175299E0,6.833351135E0,-1.027860737E1,1.735796213E0
3.432175299E0,6.232406139E0,-1.000088024E1,1.798045516E0
3.442174632E0,5.861305237E0,-9.763854027E0,1.936909199E0
3.452174632E0,5.645826817E0,-9.557952881E0,2.106897593E0
3.462174665E0,5.535693645E0,-9.323320389E0,2.308010340E0
3.472174965E0,5.463867664E0,-9.138967514E0,2.480392933E0
3.482174965E0,5.406406879E0,-9.052776337E0,2.604891539E0
3.492174965E0,5.317821026E0,-9.014469147E0,2.705447912E0
3.502174965E0,5.076006889E0,-8.990526199E0,2.741360903E0
3.512174965E0,4.730942726E0,-8.985737801E0,2.688688517E0
3.522174965E0,4.283226967E0,-8.959402084E0,2.499546528E0
3.532174965E0,3.881000996E0,-8.887576103E0,2.243366957E0
3.542175098E0,3.564966440E0,-8.710405350E0,1.929726601E0
3.552175098E0,3.335123062E0,-8.494926453E0,1.644816518E0
3.562175098E0,3.260902643E0,-8.183680534E0,1.400607944E0
3.572175564E0,3.246537447E0,-7.884405613E0,1.211466074E0
3.582175597E0,3.275267839E0,-7.594707012E0,1.058237195E0
3.592175597E0,3.303998232E0,-7.388805866E0,9.313444495E-1
3.602175597E0,3.301604033E0,-7.312191486E0,7.972691655E-1
3.612175597E0,3.260902643E0,-7.312191486E0,6.488286853E-1
3.622176097E0,3.205836058E0,-7.419930458E0,4.836287498E-1
3.632176063E0,3.143586874E0,-7.606678009E0,3.040636182E-1
3.642176063E0,3.090914488E0,-7.848492622E0,1.149216816E-1
3.652176129E0,3.043030262E0,-8.095095634E0,-6.943184882E-2
3.662176162E0,3.023876667E0,-8.305785179E0,-2.633621991E-1
3.672176162E0,3.019088268E0,-8.442254066E0,-4.381389022E-1
3.682176162E0,3.043030262E0,-8.509291649E0,-5.841852427E-1
3.692176162E0,3.088520288E0,-8.571541786E0,-6.943184733E-1
3.702176162E0,3.234566450E0,-8.751106262E0,-7.876923680E-1
3.712176162E0,3.450044632E0,-9.059958458E0,-9.074024558E-1
3.722176062E0,3.761290789E0,-9.541193008E0,-1.113303781E0
3.732176062E0,3.967192173E0,-1.001285076E1,-1.388636947E0
3.742176062E0,3.976768970E0,-1.035522175E1,-1.766920805E0
3.752176062E0,3.847482204E0,-1.059943008E1,-2.166752577E0
3.762176028E0,3.632004023E0,-1.078617764E1,-2.480392933E0
3.772176028E0,3.464409828E0,-1.095616627E1,-2.626439333E0
3.782176028E0,3.473986626E0,-1.115488529E1,-2.418143749E0
3.792176028E0,3.612850428E0,-1.139669895E1,-1.996764183E0
3.802176028E0,3.861847401E0,-1.180131912E1,-1.379060149E0
3.812176028E0,4.134786129E0,-1.227776527E1,-7.805097699E-1
3.822176028E0,4.505887508E0,-1.292180538E1,-1.580173075E-1
3.832176061E0,4.898836136E0,-1.362330723E1,3.806780577E-1
3.842175927E0,5.265148640E0,-1.429128933E1,8.906430602E-1
