"Time (s)","Linear Acceleration x (m/s^2)","Linear Acceleration y (m/s^2)","Linear Acceleration z (m/s^2)"
3.159915900E-2,-1.608041763E0,3.996347904E0,-2.254401684E0
4.159915900E-2,-1.591017485E0,3.987119198E0,-2.250972271E0
5.159915900E-2,-1.573981166E0,3.977941036E0,-2.247519016E0
6.159915900E-2,-1.529240489E0,4.021679878E0,-2.265145779E0
7.159915900E-2,-1.480612755E0,4.051383018E0,-2.276874065E0
8.159915900E-2,-1.432931781E0,4.070734978E0,-2.284246922E0
9.159915900E-2,-1.391767263E0,4.081651688E0,-2.288151264E0
1.015991590E-1,-1.359123468E0,4.087081909E0,-2.289865971E0
1.115991590E-1,-1.336903811E0,4.088886738E0,-2.290239811E0
1.215991590E-1,-1.322769642E0,4.088102341E0,-2.289707661E0
1.315991590E-1,-1.311575413E0,4.085541725E0,-2.288525105E0
1.415991590E-1,-1.300506592E0,4.081326485E0,-2.286695004E0
1.515991590E-1,-1.288775325E0,4.074966908E0,-2.284009457E0
1.615991590E-1,-1.277100682E0,4.065856457E0,-2.280240536E0
1.715991590E-1,-1.266866565E0,4.054179192E0,-2.275483608E0
1.815991590E-1,-1.262024999E0,4.038321495E0,-2.269198895E0
1.915991590E-1,-1.257339716E0,4.018779755E0,-2.261436939E0
2.015991590E-1,-1.249423265E0,3.994969845E0,-2.251856327E0
2.115991590E-1,-1.241100907E0,3.967348337E0,-2.240665913E0
2.215991590E-1,-1.234118938E0,3.938273430E0,-2.228819370E0
2.315991590E-1,-1.229231834E0,3.910218716E0,-2.217331409E0
2.415991590E-1,-1.227076292E0,3.883825541E0,-2.206498623E0
2.515991590E-1,-1.225205660E0,3.859120846E0,-2.196281910E0
2.615991590E-1,-1.225854516E0,3.835719109E0,-2.186597347E0
2.715991590E-1,-1.230821013E0,3.812747478E0,-2.177143574E0
2.815991590E-1,-1.238693714E0,3.789605141E0,-2.167623043E0
2.915991590E-1,-1.249252558E0,3.766572475E0,-2.158142567E0
3.015991590E-1,-1.261657476E0,3.743663788E0,-2.148679256E0
3.115991590E-1,-1.271397710E0,3.721038103E0,-2.139191151E0
3.215991590E-1,-1.273421407E0,3.696781874E0,-2.128743649E0
3.315991590E-1,-1.263202071E0,3.667617083E0,-2.115781307E0
3.415991590E-1,-1.246978760E0,3.637188911E0,-2.101983547E0
3.515991590E-1,-1.227146387E0,3.608672380E0,-2.088782787E0
3.615991590E-1,-1.206100106E0,3.584515095E0,-2.077350140E0
3.715991590E-1,-1.189264536E0,3.565460682E0,-2.068233967E0
3.815991590E-1,-1.178761363E0,3.551406384E0,-2.061522007E0
3.915991590E-1,5.138303041E-1,1.736278534E0,-9.987092018E-1
4.015991590E-1,7.986401320E-1,1.742650032E0,-4.950017929E-1
4.115991590E-1,1.151131392E0,1.719326019E0,3.238258362E-1
4.215991590E-1,1.275087357E0,1.708113194E0,6.757326126E-1
4.315991590E-1,1.047043562E0,1.626535892E0,1.000609398E0
4.415991590E-1,7.524294257E-1,1.536235332E0,1.042689323E0
4.515991590E-1,3.592335582E-1,1.554482937E0,9.695672989E-1
4.615991590E-1,1.137077659E-1,1.540894985E0,9.639663696E-1
4.715991590E-1,-1.102456450E-1,1.565753937E0,1.060188293E0
4.815991590E-1,-2.261957228E-1,1.588162422E0,1.227190018E0
4.915991590E-1,-2.790203094E-1,1.539014816E0,1.439523697E0
5.015991590E-1,-2.693633735E-1,1.439929962E0,1.588125229E0
5.115991590E-1,-3.774632215E-1,1.436938763E0,1.640680313E0
5.215991590E-1,-4.966843724E-1,1.399063110E0,1.466413498E0
5.315991590E-1,-7.478018403E-1,1.218326092E0,1.063192368E0
5.415991590E-1,-9.586742520E-1,1.118165493E0,8.198671341E-1
5.515991590E-1,-1.216692448E0,8.366103172E-1,6.282005310E-1
5.615991590E-1,-1.240494967E0,6.595168114E-1,6.481275558E-1
5.715991590E-1,-1.223965526E0,3.575377464E-1,1.073752403E0
5.815991590E-1,-1.025087237E0,2.136912346E-1,1.770743370E0
5.915991590E-1,-6.048412323E-1,8.088183403E-2,2.479977608E0
6.015991590E-1,-2.556708455E-1,6.079816818E-2,2.725387573E0
6.115991590E-1,9.604351968E-2,2.190208435E-2,2.580402374E0
6.215991590E-1,1.960110068E-1,9.027791023E-2,1.992869377E0
6.315991590E-1,-2.469459176E-2,2.238063812E-1,8.620204926E-1
6.415991590E-1,-2.650735974E-1,2.932684422E-1,1.094741821E-1
6.515991590E-1,-5.134291649E-1,3.171842098E-1,-7.688684464E-1
6.615991590E-1,-5.775740743E-1,2.648055553E-1,-1.148572445E0
6.715991590E-1,-6.000801921E-1,1.103360653E-1,-1.493672848E0
6.815991590E-1,-5.063140392E-1,-1.579523087E-2,-1.476377010E0
6.915991590E-1,-2.415817976E-1,-1.329736710E-1,-1.241293907E0
7.015991590E-1,3.943973780E-2,-2.208409309E-1,-9.543037415E-1
7.115991590E-1,2.444447279E-1,-2.748749256E-1,-7.099914551E-1
7.215991590E-1,2.537959814E-1,-3.401916027E-1,-6.380329132E-1
7.315991590E-1,1.149860546E-1,-3.299653530E-1,-7.940225601E-1
7.415991590E-1,-1.440948993E-2,-3.498251438E-1,-9.948282242E-1
7.515991590E-1,-1.694838107E-1,-3.410251141E-1,-1.273494720E0
7.615991590E-1,-2.063188553E-1,-2.882111073E-1,-1.436560154E0
7.715991590E-1,-2.310456336E-1,-2.191247940E-1,-1.601805210E0
7.815991590E-1,-2.338430882E-1,-1.948609352E-1,-1.621358871E0
7.915991590E-1,-8.679448813E-2,-1.443700790E-1,-1.598883152E0
8.015991590E-1,3.138630465E-2,-1.360077858E-1,-1.530038834E0
8.115991590E-1,6.964220852E-2,-1.738901138E-1,-1.484517097E0
8.215991590E-1,6.238602102E-3,-1.571631432E-1,-1.519896984E0
8.315991590E-1,-8.731434494E-2,-2.490789890E-1,-1.542629242E0
8.415991590E-1,-2.205010653E-1,-2.606198788E-1,-1.531152725E0
8.515991590E-1,-4.163555503E-1,-2.368705273E-1,-1.619729519E0
8.615991590E-1,-5.310614109E-1,-1.927719116E-1,-1.671612263E0
8.715991590E-1,-5.060009956E-1,-1.042561531E-1,-1.798244953E0
8.815991590E-1,-4.961819351E-1,5.045294762E-2,-1.876519680E0
8.915991590E-1,-5.199338794E-1,3.055186272E-1,-2.042138100E0
9.015991590E-1,-5.065525174E-1,3.715593815E-1,-2.131426811E0
9.115991590E-1,-6.333479881E-1,4.722723961E-1,-2.301864624E0
9.215991590E-1,-6.515287161E-1,5.795569420E-1,-2.321512699E0
9.315991590E-1,-6.438660622E-1,7.434699535E-1,-2.204642773E0
9.415991590E-1,-5.132070780E-1,8.560016155E-1,-2.029792786E0
9.515991590E-1,-2.972061634E-1,8.993992805E-1,-1.749668598E0
9.615991590E-1,-2.054393291E-1,1.000263929E0,-1.512572765E0
9.715991590E-1,-2.673275769E-2,1.095670462E0,-1.217487812E0
9.815991590E-1,1.040244699E-1,1.115199566E0,-1.036620140E0
9.915991590E-1,2.905535102E-1,1.192801952E0,-8.596420288E-1
1.001599159E0,4.410483837E-1,1.261443615E0,-7.607927322E-1
1.011599159E0,5.568073392E-1,1.364121437E0,-7.137250900E-1
1.021599159E0,5.911077261E-1,1.430497885E0,-7.324476242E-1
1.031599159E0,7.477534413E-1,1.451434612E0,-5.514183044E-1
1.041599159E0,8.062293530E-1,1.489749193E0,-3.790969849E-1
1.051599159E0,9.429155588E-1,1.585043430E0,3.556728363E-2
1.061599159E0,1.015000224E0,1.606301069E0,4.601707458E-1
1.071599159E0,1.063545704E0,1.619706869E0,1.012364388E0
1.081599159E0,1.019830346E0,1.636243343E0,1.371806145E0
1.091599159E0,9.334157109E-1,1.641102076E0,1.618374825E0
1.101599159E0,8.668612242E-1,1.780961514E0,1.554961205E0
1.111599159E0,9.626107812E-1,1.891774178E0,1.137736320E0
1.121599159E0,1.085119247E0,1.891169548E0,8.473415375E-1
1.131599159E0,1.424451947E0,1.881647110E0,3.241195679E-1
1.141599159E0,1.424544811E0,1.860820770E0,2.009468079E-1
1.151599159E0,1.308189988E0,1.775465965E0,2.118997574E-1
1.161599159E0,1.319914579E0,1.617768764E0,3.227701187E-1
1.171599159E0,1.471640944E0,1.247860432E0,7.169981003E-1
1.181599159E0,1.581612945E0,8.844575882E-1,1.228633881E0
1.191599159E0,1.705722570E0,4.631485939E-1,1.841235161E0
1.201599159E0,1.726239681E0,1.687068939E-1,2.200967789E0
1.211599159E0,1.631773949E0,-2.450761795E-1,2.443530083E0
1.221599159E0,1.526158094E0,-4.483835697E-1,2.427762032E0
1.231599159E0,1.381763339E0,-6.117520332E-1,2.128477097E0
1.241599159E0,1.354858160E0,-6.406447887E-1,1.739103317E0
1.251599159E0,1.105881929E0,-6.505947113E-1,1.037331581E0
1.261599159E0,9.221023321E-1,-6.103644371E-1,5.772542953E-1
1.271599159E0,5.706433058E-1,-5.304689407E-1,-1.230678558E-1
1.281599159E0,5.122514963E-1,-4.612488747E-1,-3.449125290E-1
1.291599159E0,5.239257812E-1,-3.085279465E-1,-5.262832642E-1
1.301599159E0,6.549885273E-1,-1.346938610E-1,-4.964962006E-1
1.311599159E0,9.744952917E-1,3.397417068E-2,-3.635606766E-1
1.321599159E0,1.200381041E0,1.850860119E-1,-2.148456573E-1
1.331599159E0,1.485107183E0,3.125350475E-1,-1.302661896E-1
1.341599159E0,1.677908659E0,3.909997940E-1,-1.445360184E-1
1.351599159E0,1.848321915E0,5.210506916E-1,-3.361110687E-1
1.361599159E0,1.781289339E0,6.305153370E-1,-5.253143311E-1
1.371599159E0,1.629018068E0,6.474521160E-1,-8.594532013E-1
1.381599159E0,1.447317243E0,6.072082520E-1,-1.068451405E0
1.391599159E0,1.226837039E0,5.244059563E-1,-1.447329044E0
1.401599159E0,1.198279619E0,4.364626408E-1,-1.581604004E0
1.411599159E0,1.124290228E0,4.234747887E-1,-1.737543583E0
1.421599159E0,1.047044754E0,3.769626617E-1,-1.847703934E0
1.431599159E0,9.782122374E-1,2.884161472E-1,-1.944684029E0
1.441599159E0,9.080159068E-1,2.038123608E-1,-2.041416645E0
1.451599159E0,8.236446381E-1,1.308157444E-1,-2.062487602E0
1.461599159E0,8.250299096E-1,1.031899452E-1,-2.052176476E0
1.471599159E0,7.957320213E-1,5.007910728E-2,-2.019347668E0
1.481599159E0,7.762936950E-1,5.988883972E-2,-2.045345783E0
1.491599159E0,7.015585899E-1,6.608605385E-2,-2.061139584E0
1.501599159E0,6.611201763E-1,6.751775742E-2,-2.103434563E0
1.511599159E0,6.081417203E-1,1.487376690E-1,-2.189337254E0
1.521599159E0,6.243726015E-1,2.427990437E-1,-2.196568012E0
1.531599159E0,6.587647200E-1,4.047889709E-1,-2.165924549E0
1.541599159E0,7.120380402E-1,5.446991920E-1,-2.144554615E0
1.551599159E0,6.341916919E-1,7.074949741E-1,-2.177620888E0
1.561599159E0,5.384499431E-1,8.385133743E-1,-2.152788639E0
1.571599159E0,5.059416294E-1,9.599654675E-1,-2.015219212E0
1.581599159E0,4.387102425E-1,1.024069548E0,-1.934824467E0
1.591599159E0,2.351672947E-1,1.071464300E0,-1.566794395E0
1.601599159E0,1.270291507E-1,1.151776314E0,-1.231798649E0
1.611599159E0,2.924877405E-2,1.286294937E0,-7.875308990E-1
1.621599159E0,-1.618355513E-3,1.368758917E0,-6.133384705E-1
1.631599192E0,-1.844191551E-2,1.608530521E0,-3.806428909E-1
1.641599192E0,-9.093731642E-3,1.777105093E0,-3.541231155E-1
1.651599192E0,6.498527527E-2,1.966003895E0,-3.542728424E-1
1.661599192E0,1.584223807E-1,2.126590967E0,-3.098325729E-1
1.671599192E0,2.098630220E-1,2.241175413E0,-5.462837219E-2
1.681599192E0,2.884441018E-1,2.238025188E0,3.271198273E-1
1.691599192E0,4.211482406E-1,2.121052980E0,1.080320358E0
1.701599192E0,4.459132552E-1,1.946854115E0,1.684651375E0
1.711599192E0,5.596761107E-1,1.685701132E0,2.543982506E0
1.721599192E0,5.805630088E-1,1.539631367E0,2.800952911E0
1.731599192E0,3.712235391E-1,1.332593203E0,2.601638794E0
1.741599192E0,1.961434633E-1,1.322653770E0,2.222585678E0
1.751599192E0,-2.140103430E-1,1.482317686E0,1.445705414E0
1.761599192E0,-3.187681735E-1,1.565625191E0,1.104643822E0
1.771599192E0,-5.053113103E-1,1.756311417E0,7.346305847E-1
1.781599192E0,-5.711135864E-1,1.802547455E0,8.304958344E-1
1.791599192E0,-4.399544001E-1,1.570973873E0,1.465913773E0
1.801599192E0,-2.151351422E-1,1.130342484E0,2.217242241E0
1.811599192E0,7.311561704E-2,2.638211250E-1,3.294585228E0
1.821599192E0,1.238077730E-1,-2.271766663E-1,3.833262444E0
1.831599192E0,6.661817431E-2,-7.901911736E-1,4.029259682E0
1.841599192E0,-6.414102018E-2,-1.013831615E0,3.787446022E0
1.851599192E0,-4.713032842E-1,-1.010928154E0,3.095425606E0
1.861599192E0,-7.210792303E-1,-9.080436230E-1,2.502397537E0
1.871599192E0,-1.029180288E0,-7.892434597E-1,1.426902771E0
1.881599192E0,-1.091623068E0,-7.516677380E-1,1.025024414E0
1.891599192E0,-1.131926179E0,-6.278243065E-1,4.075717926E-1
1.901599192E0,-9.954530597E-1,-5.326466560E-1,1.122550964E-1
1.911599192E0,-7.461440563E-1,-4.819426537E-1,-8.389186859E-2
1.921599192E0,-5.336746573E-1,-4.561798573E-1,-2.288064957E-1
1.931599158E0,-2.517594695E-1,-4.992084503E-1,-4.525241852E-1
1.941599158E0,-1.706068069E-1,-5.753908157E-1,-6.268711090E-1
1.951599158E0,-1.217063665E-1,-7.425625324E-1,-8.799123764E-1
1.961599791E0,-1.433241963E-1,-8.167693615E-1,-1.042888641E0
1.975467152E0,-2.474523038E-1,-9.717597961E-1,-1.296058655E0
1.985467152E0,-3.045304716E-1,-1.013002157E0,-1.467357635E0
1.995467152E0,-2.866035700E-1,-1.085026503E0,-1.692523003E0
2.005467152E0,-2.583826184E-1,-1.095329285E0,-1.725567818E0
2.015467152E0,-1.998196244E-1,-1.064179420E0,-1.828085423E0
2.025467152E0,-9.140318632E-2,-1.042652369E0,-1.912308216E0
2.035467152E0,7.829266787E-2,-9.404525757E-1,-1.945715427E0
2.045467152E0,1.797990203E-1,-8.641312122E-1,-1.973341942E0
2.055467152E0,1.884686351E-1,-7.707853317E-1,-2.122117519E0
2.065467152E0,1.156173348E-1,-6.783304214E-1,-2.153380394E0
2.075467052E0,1.088595390E-2,-4.830698967E-1,-2.253027916E0
2.085467052E0,-6.353485584E-2,-3.854062557E-1,-2.329124928E0
2.095467052E0,-8.446556330E-2,-1.539742947E-1,-2.380023956E0
2.105467052E0,-2.008813620E-2,1.750755310E-2,-2.391506195E0
2.115467052E0,5.222284794E-2,3.863301277E-1,-2.425264835E0
2.125467052E0,8.109688759E-2,5.650866032E-1,-2.468322754E0
2.135467052E0,1.439278126E-1,7.765600681E-1,-2.482662201E0
2.145467052E0,4.545259476E-2,9.062774181E-1,-2.463605404E0
2.155467052E0,-2.889049053E-2,1.021629572E0,-2.415997028E0
2.165467052E0,-1.006954312E-1,1.085206747E0,-2.299468040E0
2.175467052E0,-1.883735657E-1,1.064414501E0,-2.057129860E0
2.185467052E0,-2.499434948E-1,1.068630457E0,-1.893400669E0
2.195467052E0,-2.841386199E-1,1.171613455E0,-1.643950939E0
2.205467052E0,-1.561302543E-1,1.327451229E0,-1.438806534E0
2.215467052E0,7.580649853E-2,1.490350723E0,-1.163299561E0
2.225467052E0,2.523171306E-1,1.569939613E0,-9.793109894E-1
2.235467052E0,5.475886464E-1,1.786852360E0,-6.631441116E-1
2.245467052E0,6.265432239E-1,1.885798454E0,-4.989328384E-1
2.255467052E0,6.429814100E-1,1.904155254E0,-2.240543365E-1
2.265466418E0,5.966438055E-1,1.861586571E0,4.277420044E-2
2.275466418E0,5.153658986E-1,1.717212200E0,3.305149078E-1
2.285466418E0,4.914504290E-1,1.604667902E0,5.498209000E-1
2.295466418E0,5.180530548E-1,1.520223618E0,8.667707443E-1
2.305466418E0,6.640153527E-1,1.442448378E0,1.255192757E0
2.315466418E0,1.071223497E0,1.432059288E0,1.793368340E0
2.325466418E0,1.240262747E0,1.521284342E0,2.076823235E0
2.335466418E0,1.501296043E0,1.478802919E0,2.272344589E0
2.345466418E0,1.565889359E0,1.371465445E0,2.214532852E0
2.355466418E0,1.491863370E0,1.267949104E0,1.990105629E0
2.365466418E0,1.421262503E0,1.203367949E0,1.898055077E0
2.375466518E0,1.288163900E0,1.055073023E0,1.807624817E0
2.385466518E0,1.174831867E0,7.993392944E-1,1.934741974E0
2.395466518E0,1.232757211E0,3.765628338E-1,2.306365013E0
2.405466518E0,1.318314433E0,5.889010429E-2,2.701236725E0
2.415466518E0,1.476406097E0,-1.674900055E-1,3.184295654E0
2.425466518E0,1.583764911E0,-2.937099934E-1,3.264205933E0
2.435466518E0,1.693946600E0,-4.005200863E-1,2.939737320E0
2.445466518E0,1.643210411E0,-3.405585289E-1,2.405797005E0
2.455466518E0,1.564595699E0,-2.576222420E-1,1.493905067E0
2.465466518E0,1.507815123E0,-2.019248009E-1,9.705953598E-1
2.475466518E0,1.391580224E0,-1.635332108E-1,1.637544632E-1
2.485466518E0,1.335177660E0,-1.993489265E-1,-6.527233124E-2
2.495466518E0,1.360642195E0,-3.163459301E-1,-1.910505295E-1
2.505466518E0,1.501321077E0,-4.656510353E-1,1.871109009E-2
2.515466518E0,1.772465467E0,-6.372551918E-1,4.549560547E-1
2.525466518E0,1.945073724E0,-7.650201321E-1,7.636394501E-1
2.535466518E0,2.112286568E0,-9.264926910E-1,9.037866592E-1
2.545466518E0,2.085450172E0,-9.747905731E-1,7.922744751E-1
2.555466518E0,1.914761424E0,-9.584660530E-1,2.783880234E-1
2.565466518E0,1.693728089E0,-8.319113255E-1,-2.220897675E-1
2.575466518E0,1.420067072E0,-7.518255711E-1,-1.053462982E0
2.585466518E0,1.265641570E0,-6.925702095E-1,-1.510501385E0
2.595466518E0,8.939027786E-1,-5.985875130E-1,-2.192349911E0
2.605466518E0,7.195484638E-1,-6.157038212E-1,-2.413790226E0
2.615466518E0,4.903401732E-1,-6.901996136E-1,-2.583276749E0
2.625466518E0,3.620842099E-1,-6.570413113E-1,-2.581961155E0
2.635466518E0,5.050508976E-1,-5.773310661E-1,-2.360021114E0
2.645466518E0,6.734150052E-1,-3.776836395E-1,-2.144424438E0
2.655466518E0,8.840497136E-1,-3.279342651E-1,-1.983926296E0
2.665466518E0,9.715752006E-1,-2.964661121E-1,-1.994687080E0
2.675466518E0,7.964962125E-1,-1.094784737E-1,-2.250079155E0
2.685466518E0,5.886738300E-1,2.425670624E-2,-2.453035355E0
2.695466518E0,2.420607805E-1,1.672482491E-1,-2.726533413E0
2.705466518E0,7.201844454E-2,2.278358936E-1,-2.841930389E0
2.715466518E0,-1.726732254E-1,2.822020054E-1,-2.862689972E0
2.725466518E0,-1.896654367E-1,2.993183136E-1,-2.763281345E0
2.735466518E0,-1.017658114E-1,3.974936008E-1,-2.592819214E0
2.745466518E0,9.496271610E-3,5.787105560E-1,-2.394848347E0
2.755466518E0,1.317963004E-1,6.958930492E-1,-2.160894394E0
2.765466518E0,3.334578276E-1,8.219006062E-1,-2.030937195E0
2.775466518E0,4.925633669E-1,1.007538080E0,-1.884780407E0
2.785466518E0,3.587846756E-1,1.108157396E0,-1.856214046E0
2.795466518E0,-2.502155304E-2,1.161816597E0,-1.981346607E0
2.805466518E0,-2.500274479E-1,1.153575182E0,-2.033462524E0
2.815466518E0,-4.943887591E-1,1.123439789E0,-2.037586689E0
2.825466518E0,-5.771722794E-1,1.094960213E0,-1.923319817E0
2.835466518E0,-5.810415149E-1,1.070113897E0,-1.684177876E0
2.845466518E0,-5.461330414E-1,1.048179865E0,-1.461081028E0
2.855466518E0,-4.692990780E-1,1.041215181E0,-1.064094543E0
2.865466518E0,-3.628676236E-1,1.038744211E0,-6.405458450E-1
2.875466518E0,-2.720103860E-1,9.435000420E-1,1.261339188E-1
2.885466518E0,-2.059769779E-1,9.597048759E-1,6.987409592E-1
2.895466518E0,-2.754693627E-1,8.558416367E-1,1.369027138E0
2.905466518E0,-3.312601149E-1,7.321286201E-1,1.740563393E0
2.915466518E0,-5.010917187E-1,7.060244083E-1,2.002528191E0
2.925466518E0,-5.808809400E-1,8.131165504E-1,2.029123306E0
2.935466518E0,-6.789554358E-1,1.011236191E0,1.776665688E0
2.945466518E0,-7.175045013E-1,1.061961174E0,1.596714973E0
2.955466518E0,-8.406734467E-1,1.261663437E0,1.674441338E0
2.965466518E0,-8.935769200E-1,1.303040028E0,1.871125221E0
2.975466518E0,-7.604028583E-1,1.218588591E0,2.637374878E0
2.985466518E0,-5.777316689E-1,1.089840412E0,3.393142700E0
2.995466518E0,-2.811417878E-1,7.371912003E-1,4.129717827E0
3.005466518E0,-7.434543967E-2,4.523408413E-1,4.492279053E0
3.015466518E0,-2.938953042E-2,2.875051498E-1,4.619105339E0
3.025466518E0,-1.593413949E-2,1.401274204E-1,4.466260910E0
3.035466518E0,-1.293080002E-1,-2.363495827E-1,3.908610344E0
3.045466518E0,-3.104221523E-1,-4.731826782E-1,3.345299721E0
3.055466518E0,-4.252784848E-1,-7.327392101E-1,2.524843216E0
3.065466518E0,-3.948394358E-1,-8.238608837E-1,2.090690613E0
3.075466518E0,-2.663919330E-1,-9.520933628E-1,1.381189346E0
3.085466518E0,-1.838814616E-1,-9.626328945E-1,1.070987701E0
3.095466518E0,1.033429205E-1,-9.948794842E-1,6.623220444E-1
3.105466518E0,1.919652224E-1,-9.386689663E-1,3.777503967E-1
3.115466518E0,3.400796056E-1,-9.200417995E-1,-8.280754089E-3
3.125466518E0,5.014865994E-1,-9.431095123E-1,-3.669700623E-1
3.135466518E0,6.353017092E-1,-8.604846001E-1,-6.917924881E-1
3.145466518E0,7.350721955E-1,-7.598862648E-1,-9.169530869E-1
3.155466518E0,7.900107503E-1,-6.836168766E-1,-1.171870232E0
3.165466518E0,7.989490628E-1,-6.730148792E-1,-1.262005806E0
3.175466518E0,8.235743642E-1,-7.215745449E-1,-1.356094837E0
3.185466518E0,7.006550431E-1,-7.316176891E-1,-1.358252048E0
3.195466518E0,6.265885830E-1,-7.961483002E-1,-1.364911556E0
3.205466518E0,5.788934827E-1,-7.494783401E-1,-1.387553215E0
3.215466518E0,5.168327689E-1,-6.542651653E-1,-1.348731995E0
3.225466518E0,5.220498443E-1,-5.752859116E-1,-1.324408531E0
3.235466518E0,5.699893832E-1,-4.447743893E-1,-1.448245525E0
3.245466518E0,6.210691333E-1,-3.330123425E-1,-1.610093594E0
3.255466518E0,5.751582980E-1,-6.783056259E-2,-1.881869793E0
3.265466518E0,5.505354404E-1,1.138479710E-1,-2.091193199E0
3.275466518E0,4.416118860E-1,3.218960762E-1,-2.371909618E0
3.285466518E0,3.291490078E-1,5.112655163E-1,-2.563516140E0
3.295466518E0,9.769296646E-2,7.979481220E-1,-2.831480503E0
3.305466518E0,-7.464712858E-2,9.122440815E-1,-3.006308556E0
3.315466518E0,-3.416936994E-1,1.112208128E0,-3.153305531E0
3.325466518E0,-4.371152818E-1,1.198639870E0,-3.158834457E0
3.335466518E0,-4.306225479E-1,1.258879662E0,-3.010268688E0
3.345466518E0,-4.663850665E-1,1.370109320E0,-2.734099865E0
3.355466518E0,-4.292116463E-1,1.455266237E0,-2.368545532E0
3.365466518E0,-2.827109098E-1,1.478350401E0,-1.999101162E0
3.375466518E0,-1.739741564E-1,1.646999598E0,-1.557728767E0
