"Time (s)","Acceleration x (m/s^2)","Acceleration y (m/s^2)","Acceleration z (m/s^2)"
3.962231550E-1,5.873276234E0,2.257732153E0,5.269937038E0
4.062231550E-1,7.326556683E0,4.955997467E-1,4.793191910E0
4.162231550E-1,8.533234596E0,-9.337386489E-1,4.398148537E0
4.262231550E-1,9.615413666E0,-2.085349798E0,4.106055737E0
4.362231550E-1,1.058027649E1,-3.004723072E0,3.916913986E0
4.462231550E-1,1.139191055E1,-3.742137194E0,3.813963413E0
4.562233550E-1,1.201440334E1,-4.314351559E0,3.761290789E0
4.662233550E-1,1.245733070E1,-4.781220913E0,3.720589399E0
4.762233550E-1,1.270393372E1,-5.174169064E0,3.679888010E0
4.862233550E-1,1.281406689E1,-5.478232861E0,3.632004023E0
4.962233550E-1,1.264168453E1,-5.976226807E0,3.545812607E0
5.062233550E-1,1.248845577E1,-6.309020519E0,3.416525841E0
5.162233550E-1,1.247648430E1,-6.404788971E0,3.306392431E0
5.262233550E-1,1.248606110E1,-6.538864136E0,3.270479441E0
5.362233550E-1,1.252197456E1,-6.840533733E0,3.215412855E0
5.462233550E-1,1.254831028E1,-7.168539047E0,3.143586874E0
5.562233550E-1,1.265126133E1,-7.467814445E0,3.088520288E0
5.662233550E-1,1.281885529E1,-7.740753174E0,3.064578056E0
5.762233550E-1,1.301757431E1,-7.903559208E0,3.038241863E0
5.862233550E-1,1.324262905E1,-8.025663376E0,2.937685490E0
5.962233550E-1,1.338388634E1,-8.107066154E0,2.719813108E0
6.062233550E-1,1.330966663E1,-8.097489357E0,2.466027737E0
6.162233550E-1,1.288349819E1,-7.941866398E0,2.248155355E0
6.262233550E-1,1.238071632E1,-7.762300968E0,2.121262789E0
6.362233550E-1,1.186596298E1,-7.618649006E0,2.133233786E0
6.462233550E-1,1.143261242E1,-7.453449249E0,2.248155355E0
6.562233550E-1,1.114052010E1,-7.170933247E0,2.473210335E0
6.662233550E-1,1.099686813E1,-6.780678272E0,2.738966703E0
6.762233550E-1,1.098489666E1,-6.280290127E0,2.997540474E0
6.862233550E-1,1.101123333E1,-5.746383190E0,3.220201254E0
6.962233550E-1,1.103517532E1,-5.147832870E0,3.392583847E0
7.062233880E-1,1.101841545E1,-4.611232281E0,3.509899616E0
7.162233880E-1,1.088194561E1,-4.122815132E0,3.509899616E0
7.262233880E-1,1.064970875E1,-3.689464808E0,3.406949043E0
7.362233880E-1,1.033367348E1,-3.303998232E0,3.196259260E0
7.462233880E-1,1.006552315E1,-3.021482468E0,2.942473888E0
7.562233540E-1,9.859622002E0,-2.894589901E0,2.688688517E0
7.662233540E-1,9.747094154E0,-2.856282711E0,2.475604534E0
7.762233540E-1,9.701604843E0,-2.896984100E0,2.308010340E0
7.862233540E-1,9.706393242E0,-2.952050686E0,2.176329374E0
7.962233540E-1,9.737517357E0,-3.047818661E0,2.039859772E0
8.062233540E-1,9.771036148E0,-3.181894064E0,1.872265697E0
8.162233540E-1,9.804554939E0,-3.392583847E0,1.604115129E0
8.262233540E-1,9.814131737E0,-3.610456228E0,1.290474772E0
8.362233540E-1,9.783007622E0,-3.804386616E0,9.169792533E-1
8.462233540E-1,9.711181641E0,-3.974374771E0,5.602431893E-1
8.562233540E-1,9.586683273E0,-4.158728123E0,1.987187415E-1
8.662233540E-1,9.493309021E0,-4.347870350E0,-1.221042871E-1
8.762233540E-1,9.435848236E0,-4.563348293E0,-3.495534360E-1
8.862233540E-1,9.387964249E0,-4.745307922E0,-4.884171486E-1
8.962233540E-1,9.330503464E0,-4.929960728E0,-4.955997467E-1
9.062233540E-1,9.215581894E0,-5.157409668E0,-4.381389022E-1
9.162233540E-1,9.038411140E0,-5.425560474E0,-3.830722570E-1
9.262233540E-1,8.870816231E0,-5.696105003E0,-3.423708379E-1
9.362233540E-1,8.748712540E0,-5.983409405E0,-2.944868207E-1
9.462233540E-1,8.660126686E0,-6.220435143E0,-2.154781520E-1
9.562233870E-1,8.660126686E0,-6.450278759E0,-6.464344263E-2
9.662233870E-1,8.763077736E0,-6.699275494E0,1.316810995E-1
9.762233870E-1,8.973767281E0,-6.996156693E0,3.974374831E-1
9.862233870E-1,9.174880028E0,-7.264307022E0,6.847416759E-1
9.962233870E-1,9.354445457E0,-7.453449249E0,1.051054597E0
1.006223353E0,9.481337547E0,-7.594707012E0,1.395819545E0
1.016223353E0,9.567529678E0,-7.678503990E0,1.716642618E0
1.026223353E0,9.646537781E0,-7.740753174E0,1.953668594E0
1.036223353E0,9.703998566E0,-7.767089367E0,2.051830769E0
1.046223353E0,9.785401344E0,-7.791031837E0,2.023100376E0
1.056223353E0,9.857227325E0,-7.812579632E0,1.877054095E0
1.066223353E0,9.897929192E0,-7.850886822E0,1.649604917E0
1.076223353E0,9.862015724E0,-7.896376610E0,1.328781962E0
1.086223353E0,9.792584419E0,-7.956231594E0,9.840168953E-1
1.096223353E0,9.680056572E0,-8.040028572E0,6.584054828E-1
1.106223353E0,9.569923401E0,-8.133402824E0,3.782838583E-1
1.116223353E0,9.476549149E0,-8.274660110E0,1.484405100E-1
1.126223353E0,9.383175850E0,-8.399158478E0,-2.873042040E-2
1.136223353E0,9.222764015E0,-8.514080048E0,-1.795651317E-1
1.146223353E0,8.973767281E0,-8.585906982E0,-3.136404157E-1
1.156223353E0,8.650549889E0,-8.605060577E0,-4.644751251E-1
1.166223353E0,8.327332497E0,-8.629002571E0,-6.368576288E-1
1.176223353E0,8.040028572E0,-8.734347343E0,-8.092401624E-1
1.186223353E0,7.788637638E0,-8.899546623E0,-9.576807022E-1
1.196223353E0,7.530063629E0,-9.138967514E0,-1.091755986E0
1.206223353E0,7.264307022E0,-9.375992775E0,-1.199495077E0
1.216223353E0,6.965032101E0,-9.589076996E0,-1.278503656E0
1.226223353E0,6.677727699E0,-9.737517357E0,-1.331176162E0
1.236223353E0,6.376058578E0,-9.780612946E0,-1.314416766E0
1.246223353E0,6.100725174E0,-9.735123634E0,-1.252167463E0
1.256223319E0,5.861305237E0,-9.553164482E0,-1.118092179E0
1.266223319E0,5.712864399E0,-9.265859604E0,-9.504981041E-1
1.276223319E0,5.653009415E0,-8.959402084E0,-8.044517636E-1
1.286223319E0,5.653009415E0,-8.708010674E0,-6.895300746E-1
1.296223319E0,5.700893402E0,-8.478167534E0,-5.937620401E-1
1.306223319E0,5.772719383E0,-8.322544098E0,-5.099649429E-1
1.316223319E0,5.866093636E0,-8.336909294E0,-4.716577232E-1
1.326223319E0,5.971438408E0,-8.463802338E0,-4.644751251E-1
1.336223319E0,6.100725174E0,-8.696040154E0,-4.668693244E-1
1.346222919E0,6.234800339E0,-8.945036888E0,-4.716577232E-1
1.356222919E0,6.354510784E0,-9.155726433E0,-4.548983276E-1
1.366222919E0,6.443096161E0,-9.273042679E0,-4.213795066E-1
1.376222919E0,6.529287338E0,-9.217975616E0,-3.423708379E-1
1.386222919E0,6.670545101E0,-9.052776337E0,-2.082955539E-1
1.396222919E0,6.862081528E0,-8.779836655E0,-1.675941236E-2
1.406222919E0,7.044040680E0,-8.437465668E0,1.915361285E-1
1.416222919E0,7.163750648E0,-8.044816971E0,4.189853072E-1
1.426222919E0,7.204452038E0,-7.683292389E0,6.344634295E-1
1.436222919E0,7.146991253E0,-7.388805866E0,8.307880163E-1
1.446222919E0,7.048829079E0,-7.173327446E0,9.983820915E-1
1.460265499E0,6.909965515E0,-7.012916088E0,1.154005170E0
1.470265499E0,6.795043468E0,-6.886023521E0,1.283292055E0
1.480265499E0,6.739976883E0,-6.799831867E0,1.386242747E0
1.490265499E0,6.725611687E0,-6.718429089E0,1.455674648E0
1.500265499E0,6.771101475E0,-6.629843712E0,1.458068848E0
1.510265499E0,6.866869926E0,-6.531681538E0,1.414973259E0
1.520265499E0,6.974608898E0,-6.421548367E0,1.331176162E0
1.530265499E0,7.039252281E0,-6.297049522E0,1.237802267E0
1.540265499E0,7.056011677E0,-6.165368557E0,1.139639974E0
1.550265499E0,7.036858082E0,-6.031293392E0,1.060631394E0
1.560265499E0,7.029675484E0,-5.868487835E0,9.864110947E-1
1.570265499E0,7.051223278E0,-5.724835396E0,9.241618514E-1
1.580265499E0,7.120655060E0,-5.576395035E0,8.571242094E-1
1.590265499E0,7.214028835E0,-5.459079266E0,8.044517636E-1
1.600265499E0,7.338527679E0,-5.375282288E0,7.829039693E-1
1.610265499E0,7.460631847E0,-5.322609425E0,7.900865674E-1
1.620265499E0,7.630620003E0,-5.303455830E0,8.547300100E-1
1.630265499E0,7.843704224E0,-5.279513836E0,9.600749016E-1
1.640265499E0,8.119037628E0,-5.274725437E0,1.082179189E0
1.650265899E0,8.399158478E0,-5.315426826E0,1.189918280E0
1.660265899E0,8.638579369E0,-5.380070686E0,1.264138460E0
1.670265899E0,8.846874237E0,-5.478232861E0,1.302445769E0
1.680265899E0,9.055170059E0,-5.653009415E0,1.316810966E0
1.690265899E0,9.270648003E0,-5.820603371E0,1.333570361E0
1.700265899E0,9.529222488E0,-6.002563000E0,1.345541358E0
1.710265932E0,9.821314812E0,-6.201281548E0,1.350329757E0
1.720265932E0,1.013974380E1,-6.452672958E0,1.328781962E0
1.730265932E0,1.036001015E1,-6.718429089E0,1.276109457E0
1.740265932E0,1.036719227E1,-7.020098686E0,1.120486379E0
1.750265932E0,1.028339577E1,-7.422324657E0,8.714894056E-1
1.760265898E0,1.022832870E1,-7.968202591E0,5.841852427E-1
1.770265898E0,1.024508858E1,-8.487744331E0,3.423708379E-1
1.780265898E0,1.041268253E1,-8.806173325E0,2.322375625E-1
1.790265898E0,1.065928555E1,-8.904335022E0,2.250549644E-1
1.800265898E0,1.096813679E1,-8.638579369E0,3.399766386E-1
1.810265898E0,1.119798088E1,-8.188468933E0,5.075707436E-1
1.820265898E0,1.129135418E1,-7.573159218E0,7.350199223E-1
1.830265898E0,1.129853725E1,-6.974608898E0,9.672574997E-1
1.840265898E0,1.117643261E1,-6.447884560E0,1.201889277E0
1.850265898E0,1.103517532E1,-6.071994781E0,1.410184860E0
1.860265898E0,1.087955189E1,-5.830180645E0,1.584961534E0
1.870265898E0,1.074308205E1,-5.657797813E0,1.683123827E0
1.880265898E0,1.063294888E1,-5.518934250E0,1.671152830E0
1.890265898E0,1.057788277E1,-5.413589478E0,1.570596337E0
1.900265898E0,1.064252567E1,-5.296273232E0,1.383848548E0
1.910265898E0,1.078138924E1,-5.164592266E0,1.168370485E0
1.920265898E0,1.108066463E1,-5.028122902E0,9.600749016E-1
1.930265898E0,1.143740082E1,-4.906018734E0,8.020575643E-1
1.940265898E0,1.182286739E1,-4.738125324E0,7.350199223E-1
1.950265898E0,1.215326691E1,-4.546588898E0,7.182605267E-1
1.960265931E0,1.236635113E1,-4.333505154E0,7.134721279E-1
1.970265931E0,1.244775391E1,-4.161122322E0,6.775590777E-1
1.980265931E0,1.235437965E1,-4.024652958E0,5.937620401E-1
1.990265931E0,1.212932491E1,-3.902548790E0,4.836287498E-1
2.000265931E0,1.181568432E1,-3.804386616E0,3.926490843E-1
2.010265897E0,1.149007320E1,-3.746925592E0,3.495534360E-1
2.020265897E0,1.117643261E1,-3.749319792E0,3.854664862E-1
2.030265897E0,1.091307068E1,-3.816357613E0,4.668693244E-1
2.040265897E0,1.069759274E1,-3.998316765E0,6.177040339E-1
2.050265897E0,1.051802731E1,-4.232948780E0,7.948749661E-1
2.060265897E0,1.032409668E1,-4.517858505E0,1.010353088E0
2.070265897E0,1.013734913E1,-4.786009312E0,1.228225470E0
2.080265897E0,9.905111313E0,-5.104737282E0,1.486799240E0
2.090265930E0,9.677662849E0,-5.401618481E0,1.723825216E0
2.100265930E0,9.447818756E0,-5.736806393E0,1.960851192E0
2.110265930E0,9.177274704E0,-6.024110794E0,2.178723574E0
2.120265930E0,8.930671692E0,-6.263530731E0,2.372653961E0
2.130265930E0,8.717587471E0,-6.476614952E0,2.497152328E0
2.140265930E0,8.502109528E0,-6.593930721E0,2.482787132E0
2.150265930E0,8.327332497E0,-6.660968304E0,2.341529369E0
2.160265930E0,8.164526939E0,-6.725611687E0,2.042253971E0
2.170265930E0,8.006509781E0,-6.775889874E0,1.675941229E0
2.180265930E0,7.817368031E0,-6.840533733E0,1.264138460E0
2.190265930E0,7.637802601E0,-6.926724911E0,9.026140571E-1
2.200265930E0,7.410353661E0,-7.041646481E0,6.799532771E-1
2.210265963E0,7.178115845E0,-7.149385452E0,4.884171486E-1
2.220265963E0,6.969820499E0,-7.314585686E0,3.950432837E-1
2.230265963E0,6.761524677E0,-7.527669430E0,3.327940404E-1
2.240265963E0,6.562806129E0,-7.814973831E0,2.513911724E-1
2.250265963E0,6.368875980E0,-8.135796547E0,1.843535304E-1
2.260265929E0,6.177339554E0,-8.461407661E0,9.816227108E-2
2.270265929E0,6.007351398E0,-8.724770546E0,1.197100803E-2
2.280265929E0,5.870882034E0,-8.928277016E0,-9.816227108E-2
2.290265929E0,5.758354187E0,-9.043199539E0,-2.106897533E-1
2.300265929E0,5.700893402E0,-9.059958458E0,-3.208230138E-1
2.310265929E0,5.729623795E0,-9.081506729E0,-4.285621047E-1
2.320265929E0,5.942708015E0,-9.289801598E0,-5.626373887E-1
2.330265929E0,6.191704750E0,-9.605836868E0,-6.991068721E-1
2.340265929E0,6.490980148E0,-1.004158115E1,-8.403648138E-1
2.350265929E0,6.771101475E0,-1.047493172E1,-9.481038451E-1
2.360265929E0,7.020098686E0,-1.078138924E1,-9.911994934E-1
2.370265929E0,7.235576630E0,-1.085800362E1,-9.385270476E-1
2.380265929E0,7.407959461E0,-1.059943008E1,-7.852981687E-1
2.390265895E0,7.582736015E0,-1.021156979E1,-6.272808313E-1
2.400265895E0,7.838915825E0,-9.735123634E0,-4.692635238E-1
2.410265895E0,8.142979622E0,-9.299378395E0,-3.208230138E-1
2.420265895E0,8.492532730E0,-8.978555679E0,-1.699883193E-1
2.430265895E0,8.791808128E0,-8.808567047E0,-3.830722719E-2
2.440265895E0,9.004891396E0,-8.822932243E0,5.027823523E-2
2.450265895E0,9.138967514E0,-8.916306496E0,9.576806426E-2
2.460265928E0,9.210793495E0,-9.064746857E0,9.816227108E-2
2.470265928E0,9.294589996E0,-9.206005096E0,6.224924326E-2
2.480265928E0,9.390357971E0,-9.232340813E0,2.633621916E-2
2.490265928E0,9.490914345E0,-9.122207642E0,1.436521020E-2
2.500265928E0,9.567529678E0,-8.801384926E0,3.351882473E-2
2.510265894E0,9.629778862E0,-8.413523674E0,5.985504389E-2
2.520265894E0,9.624990463E0,-7.929895401E0,1.077390760E-1
2.530265894E0,9.541193008E0,-7.429507256E0,1.771709323E-1
2.540265894E0,9.335291862E0,-6.897994518E0,2.729389966E-1
2.550265894E0,9.076718330E0,-6.438307762E0,3.734954596E-1
2.560265894E0,8.751106262E0,-6.026504993E0,4.596867263E-1
2.570265894E0,8.442254066E0,-5.676951408E0,5.339069963E-1
2.580265894E0,8.176498413E0,-5.372888088E0,6.057330370E-1
2.590265894E0,7.984961987E0,-5.128679276E0,6.655880809E-1
2.600265894E0,7.882011414E0,-4.925172329E0,7.062895298E-1
2.610265894E0,7.846098423E0,-4.738125324E0,7.254431248E-1
2.620265894E0,7.874828815E0,-4.525041103E0,7.134721279E-1
2.630265894E0,7.877223015E0,-4.331110954E0,6.799532771E-1
2.640265894E0,7.786243439E0,-4.158728123E0,6.057330370E-1
2.650265894E0,7.623437405E0,-4.027047157E0,5.147533417E-1
2.660265894E0,7.369652271E0,-3.931279182E0,4.118026793E-1
2.670265894E0,7.091924667E0,-3.857059002E0,3.112462163E-1
2.680265894E0,6.790255070E0,-3.801992416E0,2.154781520E-1
2.690265894E0,6.543652534E0,-3.773261786E0,1.412578970E-1
2.700265894E0,6.364087582E0,-3.773261786E0,1.029506698E-1
2.710265927E0,6.239588737E0,-3.801992416E0,1.077390760E-1
2.720265927E0,6.179733753E0,-3.890577793E0,1.436520964E-1
2.730265927E0,6.160580158E0,-4.043806553E0,2.011129409E-1
2.740265927E0,6.170156956E0,-4.278438568E0,2.873041928E-1
2.750265927E0,6.179733753E0,-4.546588898E0,3.926490843E-1
2.760265893E0,6.201281548E0,-4.850652695E0,5.315127969E-1
2.770265893E0,6.268319130E0,-5.157409668E0,6.943184733E-1
2.780265893E0,6.390423775E0,-5.499780655E0,9.169792533E-1
2.790265893E0,6.555623531E0,-5.796661377E0,1.151610970E0
2.800265893E0,6.881235123E0,-6.107907772E0,1.414973259E0
2.810265893E0,7.240365028E0,-6.411971569E0,1.637633920E0
2.820265893E0,7.613860607E0,-6.713640690E0,1.802833915E0
2.830265893E0,7.994538784E0,-6.988974094E0,1.865083098E0
2.840265893E0,8.399158478E0,-7.261912823E0,1.853112102E0
2.850265893E0,8.767866135E0,-7.463026047E0,1.817199111E0
2.860265893E0,9.098265648E0,-7.530063629E0,1.793257117E0
2.870265893E0,9.411906242E0,-7.518092632E0,1.795651317E0
2.880265893E0,9.790189743E0,-7.460631847E0,1.812410712E0
2.890265893E0,1.020199299E1,-7.415142059E0,1.795651317E0
2.900265893E0,1.069040966E1,-7.458237648E0,1.716642618E0
2.910265893E0,1.118122101E1,-7.568370819E0,1.604115129E0
2.920265893E0,1.162893677E1,-7.666532993E0,1.438915253E0
2.930265893E0,1.194736576E1,-7.659350395E0,1.254561663E0
2.940265893E0,1.209341240E1,-7.484573841E0,1.065419793E0
2.950265893E0,1.208862400E1,-7.161356449E0,8.978256583E-1
2.960265926E0,1.197130775E1,-6.708852291E0,7.876923680E-1
2.970265926E0,1.184920311E1,-6.275501728E0,7.493851185E-1
2.980265926E0,1.175582981E1,-5.957073212E0,8.188169599E-1
2.990265926E0,1.170555115E1,-5.746383190E0,9.433154464E-1
3.000265926E0,1.176301193E1,-5.705681801E0,1.139639974E0
3.010265892E0,1.189229870E1,-5.763142586E0,1.338358760E0
3.020265892E0,1.210059452E1,-5.918766022E0,1.501164436E0
3.030265892E0,1.228255367E1,-6.100725174E0,1.582567334E0
3.040265892E0,1.239268684E1,-6.328174591E0,1.458068848E0
3.050265892E0,1.242381191E1,-6.553229332E0,1.247379065E0
3.060265892E0,1.226579475E1,-6.754342079E0,9.337386489E-1
3.070265892E0,1.197370243E1,-6.850110531E0,5.746083856E-1
3.080265892E0,1.158823586E1,-6.854898930E0,2.035071403E-1
3.090265892E0,1.116446209E1,-6.787860870E0,-1.077390760E-1
3.100265892E0,1.067365074E1,-6.627449512E0,-3.495534360E-1
3.110265892E0,1.019241619E1,-6.428730965E0,-5.171475410E-1
3.120265892E0,9.694421768E0,-6.213252544E0,-5.985504389E-1
3.130265892E0,9.227552414E0,-6.043264389E0,-6.344634295E-1
3.140265892E0,8.746317863E0,-5.949890614E0,-6.153098345E-1
3.150265892E0,8.272266388E0,-5.918766022E0,-6.033388376E-1
3.160265892E0,7.661744595E0,-5.973832607E0,-6.488286853E-1
3.170265925E0,7.079953671E0,-6.048052788E0,-7.206547260E-1
3.180265925E0,6.486191750E0,-6.146214962E0,-8.331822157E-1
3.190265925E0,5.942708015E0,-6.239588737E0,-9.313444495E-1
3.200265925E0,5.538087845E0,-6.265924931E0,-9.816226959E-1
3.210265958E0,5.305850029E0,-6.218040943E0,-9.744400978E-1
3.220265958E0,5.346551895E0,-6.060023785E0,-8.762778044E-1
3.230265958E0,5.554847240E0,-5.861305237E0,-7.302315235E-1
3.240265958E0,5.992986202E0,-5.593154430E0,-5.291185975E-1
3.250265958E0,6.498162746E0,-5.329792023E0,-3.256114423E-1
3.260265924E0,7.048829079E0,-5.092766285E0,-1.723825186E-1
3.270265924E0,7.532457829E0,-4.898836136E0,-7.661445439E-2
3.280265924E0,7.949048996E0,-4.764461517E0,-2.873042040E-2
3.290265924E0,8.281843185E0,-4.675876141E0,7.182605099E-3
3.300265924E0,8.506897926E0,-4.654327869E0,1.915361360E-2
3.310265924E0,8.636184692E0,-4.656722069E0,4.788403213E-2
3.320265924E0,8.679280281E0,-4.639962673E0,1.316810995E-1
3.330265924E0,8.676886559E0,-4.570530891E0,2.801215947E-1
3.340265924E0,8.672098160E0,-4.467580318E0,4.812345505E-1
3.350265924E0,8.688857079E0,-4.367023945E0,6.775590777E-1
3.360265924E0,8.803778648E0,-4.266467571E0,8.283938169E-1
3.370265924E0,8.947430611E0,-4.173093796E0,9.433154464E-1
3.380265924E0,9.095871925E0,-4.079719543E0,1.039083481E0
3.390265924E0,9.253889084E0,-4.067748547E0,1.122880578E0
3.400265924E0,9.541193008E0,-4.378994942E0,1.187524080E0
3.410265924E0,9.881169319E0,-4.845864296E0,1.252167463E0
3.420265924E0,1.017565632E1,-5.475838661E0,1.268926859E0
3.430265924E0,1.031930828E1,-6.067206383E0,1.252167463E0
3.440265924E0,1.025705910E1,-6.529287338E0,1.237802267E0
3.450265924E0,9.996091843E0,-6.821380138E0,1.268926859E0
3.460265957E0,9.502885818E0,-6.866869926E0,1.371877551E0
3.470265923E0,8.925883293E0,-6.775889874E0,1.510741234E0
3.480265923E0,8.339303970E0,-6.682516098E0,1.663970232E0
3.490265923E0,7.841310024E0,-6.668150902E0,1.769315004E0
3.500265923E0,7.455843449E0,-6.797437668E0,1.762132406E0
3.510265889E0,7.139808655E0,-6.993762493E0,1.668758631E0
3.520265889E0,6.883629322E0,-7.372046471E0,1.381454349E0
3.530265889E0,6.701669693E0,-7.779060364E0,1.046266198E0
3.540265889E0,6.648997307E0,-8.224382401E0,6.631938815E-1
3.550265889E0,6.756736279E0,-8.607454300E0,3.136404157E-1
3.560265889E0,6.945878506E0,-8.825326920E0,7.422025502E-2
3.570265889E0,7.118260860E0,-8.882787704E0,-4.070143029E-2
3.580265889E0,7.204452038E0,-8.743924141E0,-3.351882473E-2
3.590265922E0,7.218817234E0,-8.514080048E0,4.788403399E-3
3.600265922E0,7.135020256E0,-8.145373344E0,4.548983276E-2
3.610265922E0,7.020098686E0,-7.728782177E0,5.506663769E-2
3.620265922E0,6.818985939E0,-7.316979885E0,1.675941236E-2
3.630265922E0,6.584353924E0,-6.950666904E0,-3.830722719E-2
3.640265922E0,6.253953934E0,-6.593930721E0,-1.292868853E-1
3.650265922E0,5.961861610E0,-6.304232121E0,-2.346317619E-1
3.660265922E0,5.717652798E0,-6.112696171E0,-3.854664862E-1
3.670265922E0,5.516540051E0,-5.978621006E0,-5.722141862E-1
3.680265922E0,5.401618481E0,-5.947496414E0,-8.236053586E-1
3.690265922E0,5.310638428E0,-5.921160221E0,-1.089361787E0
3.700265922E0,5.243600845E0,-5.813420773E0,-1.379060149E0
3.710265922E0,5.267542839E0,-5.669768810E0,-1.632845521E0
3.720265922E0,5.399224281E0,-5.466261864E0,-1.814804912E0
3.730265922E0,5.550058842E0,-5.272331238E0,-1.927332401E0
3.740265922E0,5.708076000E0,-5.087977886E0,-1.956062794E0
3.750265922E0,5.811026573E0,-4.944325924E0,-1.968033791E0
3.760265888E0,5.827786446E0,-4.805162907E0,-1.968033791E0
3.770265888E0,5.832574844E0,-4.709394932E0,-1.963245392E0
3.780265888E0,5.882853031E0,-4.668693542E0,-1.946485996E0
3.790265888E0,6.009745598E0,-4.680664539E0,-1.900996208E0
3.800265888E0,6.206069946E0,-4.740519524E0,-1.790862918E0
3.810265888E0,6.426336765E0,-4.826710701E0,-1.637633920E0
3.820265888E0,6.756736279E0,-4.992209911E0,-1.407790542E0
