"Time (s)","Acceleration x (m/s^2)","Acceleration y (m/s^2)","Acceleration z (m/s^2)"
3.942362730E-1,1.508347034E0,5.514145851E0,7.644985199E0
4.042362730E-1,1.077390790E0,5.528511047E0,7.642591000E0
4.142362730E-1,7.900865674E-1,5.459079266E0,7.769483566E0
4.242362730E-1,5.937620401E-1,5.360917091E0,7.922712803E0
4.342366060E-1,4.548983276E-1,5.253177643E0,8.114249229E0
4.442366060E-1,3.447650373E-1,5.147832870E0,8.293813705E0
4.542366060E-1,2.561795712E-1,5.040093899E0,8.447042465E0
4.642366060E-1,1.891419291E-1,4.922778130E0,8.571541786E0
4.742366060E-1,1.316810995E-1,4.790797710E0,8.691251755E0
4.842366060E-1,9.816227108E-2,4.661510944E0,8.794201851E0
4.942366060E-1,9.576806426E-2,4.508281708E0,8.866027832E0
5.042366060E-1,1.244984865E-1,4.352658749E0,8.909123421E0
5.142366060E-1,1.771709323E-1,4.206612587E0,8.909123421E0
5.242366890E-1,2.226607651E-1,4.089296341E0,8.858845711E0
5.342366890E-1,2.322375625E-1,4.031835556E0,8.739135742E0
5.442366890E-1,2.346317619E-1,4.019864559E0,8.590695381E0
5.542366890E-1,2.226607651E-1,4.043806553E0,8.401553154E0
5.642366890E-1,2.011129409E-1,4.096478939E0,8.190863609E0
5.742366890E-1,1.771709323E-1,4.182670593E0,7.977779388E0
5.842366890E-1,1.604115069E-1,4.280832767E0,7.803002834E0
5.942366890E-1,1.532289088E-1,4.381389141E0,7.671321392E0
6.042366890E-1,1.484405100E-1,4.455609322E0,7.582736015E0
6.142366890E-1,1.628057212E-1,4.498704910E0,7.556399822E0
6.242366890E-1,2.130839527E-1,4.525041103E0,7.573159218E0
6.342366890E-1,2.968810201E-1,4.529829502E0,7.623437405E0
6.442366890E-1,3.902548850E-1,4.520252705E0,7.680898190E0
6.542366890E-1,4.884171486E-1,4.481945515E0,7.726387978E0
6.642366890E-1,5.841852427E-1,4.446032524E0,7.757512569E0
6.742366890E-1,6.727706790E-1,4.441244125E0,7.793426037E0
6.842366890E-1,7.589619160E-1,4.462791920E0,7.846098423E0
6.942366890E-1,8.619126081E-1,4.501099110E0,7.925107002E0
7.042366890E-1,9.768342972E-1,4.551377296E0,8.028057098E0
7.142366890E-1,1.113303781E0,4.601655483E0,8.169315338E0
7.242366890E-1,1.244984865E0,4.639962673E0,8.310573578E0
7.342366550E-1,1.345541358E0,4.649539471E0,8.497321129E0
7.442366550E-1,1.412579060E0,4.637568474E0,8.705616951E0
7.542366550E-1,1.438915253E0,4.577713490E0,8.940248489E0
7.642366550E-1,1.491587639E0,4.501099110E0,9.138967514E0
7.742366880E-1,1.649604917E0,4.381389141E0,9.301773071E0
7.842366880E-1,1.829170108E0,4.271255970E0,9.419088364E0
7.942366880E-1,2.066195965E0,4.189853191E0,9.507674217E0
8.042366880E-1,2.238578558E0,4.180276394E0,9.534010887E0
8.142366880E-1,2.463633537E0,4.273650169E0,9.435848236E0
8.242366540E-1,2.849100113E0,4.259284973E0,9.251494408E0
8.342366540E-1,3.339911461E0,4.053383350E0,8.959402084E0
8.442366540E-1,3.804386616E0,3.794809580E0,8.746317863E0
8.542366540E-1,3.991134167E0,3.574543238E0,8.755894661E0
8.642366540E-1,3.902548790E0,3.569754839E0,8.952219009E0
8.742366540E-1,3.588908434E0,3.627215624E0,9.414299965E0
8.842366540E-1,3.270479441E0,3.505111217E0,9.864410400E0
8.942366540E-1,2.851494312E0,3.043030262E0,1.016847420E1
9.042366540E-1,2.384624958E0,2.497152328E0,1.029776096E1
9.142366540E-1,2.183511972E0,1.805228114E0,1.018044472E1
9.242366540E-1,2.044648170E0,1.221042871E0,9.823708534E0
9.342366540E-1,2.020706177E0,9.504981041E-1,9.330503464E0
9.442366540E-1,2.133233786E0,1.079784989E0,8.937853813E0
9.542366540E-1,2.068590164E0,1.472434044E0,8.681674957E0
9.642366540E-1,1.893813491E0,1.740584612E0,8.430283546E0
9.742366540E-1,1.321599364E0,2.006340981E0,8.241141319E0
9.842366540E-1,5.243301988E-1,2.267308950E0,8.198045731E0
9.942366540E-1,-6.009446383E-1,2.521094322E0,8.394370079E0
1.004236654E0,-1.367089152E0,2.636016130E0,8.528446198E0
1.014236654E0,-1.568202138E0,2.664746523E0,8.339303970E0
1.024236687E0,-1.685518026E0,2.633621931E0,7.917924404E0
1.034236687E0,-2.157175779E0,2.968810081E0,7.625831604E0
1.044236687E0,-2.983175278E0,3.902548790E0,8.291419983E0
1.054236687E0,-3.813963413E0,4.819528103E0,9.206005096E0
1.064236687E0,-4.201824188E0,5.008969307E0,9.397541046E0
1.074236653E0,-4.299986362E0,4.548983097E0,9.126996040E0
1.084236653E0,-4.362235546E0,4.173093796E0,8.937853813E0
1.094236653E0,-4.501099110E0,3.945644379E0,8.942642212E0
1.104236653E0,-4.407725334E0,3.648763418E0,8.717587471E0
1.114236653E0,-4.101267338E0,3.217807055E0,8.135796547E0
1.124236653E0,-3.957615376E0,2.959233284E0,7.594707012E0
1.134236653E0,-4.244919777E0,2.896984100E0,6.912359715E0
1.144236653E0,-4.584896088E0,2.820369720E0,6.050446987E0
1.154236653E0,-4.297592163E0,2.413355350E0,5.195716858E0
1.164236653E0,-3.902548790E0,1.927332401E0,4.338293552E0
1.174236653E0,-3.490746021E0,1.534683347E0,3.588908434E0
1.184236653E0,-3.090914488E0,1.242590666E0,3.071760893E0
1.194236653E0,-2.762908697E0,2.008735180E0,3.720589399E0
1.204236653E0,-3.184288263E0,2.762908697E0,4.951508522E0
1.214236653E0,-3.533841610E0,3.665522814E0,5.861305237E0
1.224236653E0,-3.770867586E0,4.663905144E0,7.008127689E0
1.234236653E0,-3.473986626E0,4.797980309E0,7.084742069E0
1.244236653E0,-2.899378300E0,4.613626480E0,6.737582684E0
1.254236653E0,-2.525882721E0,4.630385876E0,6.828562737E0
1.264236653E0,-2.509123325E0,4.766855717E0,7.175721645E0
1.274236686E0,-2.896984100E0,4.944325924E0,7.324162483E0
1.284236686E0,-3.043030262E0,5.423166275E0,7.537246227E0
1.294236686E0,-2.774879694E0,6.474220753E0,7.795820236E0
1.304236686E0,-2.837129116E0,7.860463619E0,8.104672432E0
1.314236686E0,-3.876212597E0,8.490138054E0,8.157344818E0
1.324236652E0,-3.825934410E0,8.018480301E0,7.927501202E0
1.334236652E0,-2.494758129E0,6.730400085E0,7.324162483E0
1.344236652E0,-8.619126081E-1,5.176563263E0,6.730400085E0
1.354236652E0,5.363011956E-1,3.433285236E0,6.213252544E0
1.364236252E0,1.381454349E0,1.903390408E0,5.827786446E0
1.374236252E0,1.764526606E0,1.161187768E0,5.688922405E0
1.384236252E0,2.068590164E0,1.019929886E0,5.691316605E0
1.394236252E0,2.252943754E0,9.433154464E-1,5.291484833E0
1.404236252E0,2.564189911E0,9.504981041E-1,4.711789131E0
1.414236252E0,2.961627483E0,9.193734527E-1,4.115632534E0
1.424236252E0,3.272873640E0,6.727706790E-1,3.627215624E0
1.434236252E0,3.632004023E0,1.029506698E-1,3.148375273E0
1.444236252E0,4.137180328E0,-4.884171486E-1,2.765302896E0
1.454236252E0,4.616020679E0,-1.187524080E0,2.664746523E0
1.464236252E0,5.178957462E0,-1.903390408E0,2.806004286E0
1.474236252E0,5.954679012E0,-2.870647907E0,3.131615877E0
1.484236252E0,6.749553680E0,-3.940855980E0,3.524264812E0
1.494236252E0,7.949048996E0,-4.968267918E0,4.240131378E0
1.504236252E0,9.220370293E0,-5.787084579E0,4.929960728E0
1.514236252E0,1.031451988E1,-6.603507519E0,5.437531471E0
1.524236252E0,1.121713448E1,-7.431901455E0,5.842151642E0
1.534236252E0,1.186356831E1,-8.329727173E0,6.129455566E0
1.544236252E0,1.228494835E1,-9.170091629E0,6.481403351E0
1.554236252E0,1.259380054E1,-9.938630104E0,6.962637901E0
1.564236252E0,1.290983486E1,-1.066886234E1,7.467814445E0
1.574236218E0,1.335515594E1,-1.131050777E1,8.085518837E0
1.584235884E0,1.386512089E1,-1.168879223E1,8.664915085E0
1.598247307E0,1.445648956E1,-1.200722122E1,9.126996040E0
1.608247307E0,1.500745487E1,-1.230649567E1,9.402329445E0
1.618247307E0,1.546714115E1,-1.254352188E1,9.450213432E0
1.628247340E0,1.575444603E1,-1.262971306E1,9.419088364E0
1.638247340E0,1.595077038E1,-1.256746387E1,9.320926666E0
1.648247340E0,1.596034718E1,-1.208862400E1,9.220370293E0
1.658247340E0,1.576641655E1,-1.127459526E1,9.141361237E0
1.668247740E0,1.546235275E1,-1.042225933E1,8.957007408E0
1.678247740E0,1.510801125E1,-9.474155426E0,8.576330185E0
1.688247740E0,1.466717911E1,-8.631396294E0,8.157344818E0
1.698247340E0,1.413566589E1,-7.846098423E0,7.597101212E0
1.708247340E0,1.364964294E1,-7.111078262E0,6.972214699E0
1.718247340E0,1.323784065E1,-6.426336765E0,6.335357189E0
1.728247340E0,1.289786339E1,-5.801449776E0,5.777507782E0
1.738247340E0,1.255788708E1,-5.138256073E0,5.212476254E0
1.748247340E0,1.228494835E1,-4.544194698E0,4.730942726E0
1.758247340E0,1.197370243E1,-4.034229755E0,4.276044369E0
1.768247340E0,1.159541798E1,-3.586514235E0,3.904942989E0
1.778247373E0,1.113094330E1,-3.181894064E0,3.576937437E0
1.788247373E0,1.069759274E1,-2.798821688E0,3.296815634E0
1.798247373E0,1.034803867E1,-2.375048161E0,3.066972494E0
1.808247373E0,1.012298393E1,-1.934514999E0,2.901772499E0
1.818247373E0,1.001285076E1,-1.422155857E0,2.798821688E0
1.828247373E0,9.969755173E0,-9.552865028E-1,2.753331900E0
1.838247373E0,9.993697166E0,-5.147533417E-1,2.753331900E0
1.848247373E0,1.006073475E1,-1.508347094E-1,2.803610086E0
1.858247373E0,1.011340714E1,3.112462163E-2,2.947262287E0
1.868247373E0,1.019480991E1,1.915361285E-1,3.134010077E0
1.878247373E0,1.041507626E1,3.782838583E-1,3.387795448E0
1.888247706E0,1.065689087E1,3.639186621E-1,3.636792421E0
1.898247706E0,1.097292614E1,1.675941199E-1,3.859453201E0
1.908247706E0,1.133444977E1,-8.379705995E-2,4.055777550E0
1.918247706E0,1.169118595E1,-4.046200812E-1,4.127603531E0
1.928247672E0,1.200003815E1,-7.445967197E-1,4.118026733E0
1.938247672E0,1.226818848E1,-1.185129881E0,4.043806553E0
1.948247672E0,1.247648430E1,-1.635239720E0,3.945644379E0
1.958247672E0,1.269675064E1,-2.128445387E0,3.842693806E0
1.968247672E0,1.293377686E1,-2.580949545E0,3.785232782E0
1.978247672E0,1.327135944E1,-3.028665066E0,3.816357613E0
1.988247672E0,1.361133575E1,-3.433285236E0,3.852270603E0
1.998248072E0,1.403271580E1,-3.871424198E0,3.818751812E0
2.008248072E0,1.451155567E1,-4.355052948E0,3.718195200E0
2.018248072E0,1.502900219E1,-4.929960728E0,3.538630009E0
2.028248105E0,1.558445740E1,-5.538087845E0,3.349488258E0
2.038248105E0,1.609681702E1,-6.198887348E0,3.122039080E0
2.048248105E0,1.644876480E1,-6.795043468E0,2.923320293E0
2.058248105E0,1.656608009E1,-7.204452038E0,2.731784105E0
2.068248105E0,1.651819611E1,-7.496544838E0,2.585737944E0
2.078248071E0,1.626201630E1,-7.731176376E0,2.470816135E0
2.088248071E0,1.596752930E1,-7.927501202E0,2.401384354E0
2.098248071E0,1.572092724E1,-8.152556419E0,2.432508945E0
2.108248071E0,1.552460194E1,-8.423100471E0,2.492363930E0
2.118248071E0,1.536419106E1,-8.777442932E0,2.607285738E0
2.128248071E0,1.520138550E1,-9.136572838E0,2.746149302E0
2.138248071E0,1.501463699E1,-9.462183952E0,2.887407303E0
2.148248071E0,1.473690987E1,-9.735123634E0,2.999934673E0
2.158248071E0,1.434396172E1,-9.902717590E0,3.086126089E0
2.168248071E0,1.387230396E1,-9.962572098E0,3.129221678E0
2.178248071E0,1.326896477E1,-9.890746117E0,3.112462282E0
2.188248071E0,1.265365505E1,-9.744700432E0,3.043030262E0
2.198248071E0,1.206228733E1,-9.555558205E0,2.896984100E0
2.208248071E0,1.153316879E1,-9.337685585E0,2.746149302E0
2.218248071E0,1.092504120E1,-9.002497673E0,2.557007313E0
2.228248071E0,1.036479855E1,-8.657732964E0,2.375048161E0
2.238248071E0,9.806949615E0,-8.265083313E0,2.176329374E0
2.248248071E0,9.268254280E0,-7.860463619E0,1.965639591E0
2.258248071E0,8.748712540E0,-7.436689854E0,1.752555609E0
2.268248071E0,8.248324394E0,-7.041646481E0,1.544260144E0
2.278248104E0,7.750329971E0,-6.680121899E0,1.316810966E0
2.288248104E0,7.300220490E0,-6.380846977E0,1.096544385E0
2.298248104E0,6.802226067E0,-6.093542576E0,8.738836050E-1
2.308248104E0,6.285078526E0,-5.846940041E0,6.631938815E-1
2.318248104E0,5.734412193E0,-5.641038418E0,4.261679053E-1
2.328248070E0,5.202899456E0,-5.480627060E0,1.819593310E-1
2.338248070E0,4.666299343E0,-5.336975098E0,-6.703764945E-2
2.348248070E0,4.194641590E0,-5.200505257E0,-2.777273953E-1
2.358248070E0,3.780444384E0,-5.066430092E0,-4.548983276E-1
2.368248070E0,3.399766445E0,-4.915595531E0,-5.937620401E-1
2.378248070E0,3.083731890E0,-4.757278919E0,-7.110779285E-1
2.388248070E0,2.856282711E0,-4.606443882E0,-8.188169599E-1
2.398248070E0,2.743755102E0,-4.431667328E0,-9.217676520E-1
2.408248070E0,2.683900118E0,-4.252102375E0,-1.024718285E0
2.418248070E0,2.664746523E0,-4.053383350E0,-1.125274777E0
2.428248070E0,2.645592928E0,-3.866635799E0,-1.223437071E0
2.438248070E0,2.619256735E0,-3.696647406E0,-1.331176162E0
2.448248070E0,2.631227732E0,-3.579331636E0,-1.426944256E0
2.458248070E0,2.707842112E0,-3.507505417E0,-1.517923832E0
2.468248070E0,2.782062292E0,-3.442862034E0,-1.608903527E0
2.478248070E0,2.930502892E0,-3.378218651E0,-1.697489023E0
2.488248070E0,3.181894064E0,-3.351882458E0,-1.781286120E0
2.498248070E0,3.588908434E0,-3.361459255E0,-1.841141105E0
2.508248070E0,4.055777550E0,-3.387795448E0,-1.862688899E0
2.518248070E0,4.582501888E0,-3.495534420E0,-1.829170108E0
2.528248103E0,5.114314079E0,-3.667917013E0,-1.754949808E0
2.538248103E0,5.703287601E0,-3.962403774E0,-1.697489023E0
2.548248103E0,6.325780392E0,-4.266467571E0,-1.630451322E0
2.558248103E0,7.091924667E0,-4.589684486E0,-1.517923832E0
2.568248103E0,7.896376610E0,-4.929960728E0,-1.426944256E0
2.578248069E0,8.923488617E0,-5.399224281E0,-1.355118155E0
2.588248069E0,9.895534515E0,-5.873276234E0,-1.297657371E0
2.598248169E0,1.090109921E1,-6.409577370E0,-1.206677675E0
2.608248169E0,1.185638618E1,-6.962637901E0,-1.072602391E0
2.618248169E0,1.281167221E1,-7.498939037E0,-8.307880163E-1
2.628248169E0,1.373344040E1,-7.932289600E0,-5.434837937E-1
2.638248169E0,1.465760231E1,-8.188468933E0,-1.843535304E-1
2.648248169E0,1.553178501E1,-8.320150375E0,1.580173075E-1
2.658248169E0,1.637933159E1,-8.281843185E0,4.788403511E-1
2.668248169E0,1.715266037E1,-8.200440407E0,7.326257229E-1
2.678248169E0,1.773205566E1,-8.152556419E0,1.007958889E0
2.688248169E0,1.810794640E1,-8.087912560E0,1.266532660E0
2.698248169E0,1.817019463E1,-8.052000046E0,1.503558636E0
2.708248169E0,1.813667679E1,-8.054393768E0,1.702277422E0
2.718248169E0,1.795711136E1,-8.095095634E0,1.903390408E0
2.728248169E0,1.768896103E1,-8.063970566E0,2.128445387E0
2.738248169E0,1.761952972E1,-7.910741806E0,2.367865562E0
2.748248169E0,1.766980743E1,-7.474997044E0,2.662352324E0
2.758248169E0,1.760276985E1,-6.905177116E0,2.899378300E0
2.768248169E0,1.733461952E1,-6.407183170E0,2.987963676E0
2.778248202E0,1.659481049E1,-5.839757442E0,2.873042107E0
2.788247302E0,1.554615021E1,-5.219658852E0,2.734178305E0
2.798247302E0,1.420988655E1,-4.599261284E0,2.461239338E0
2.808247302E0,1.296011353E1,-4.046200752E0,2.092532396E0
2.818247302E0,1.186117458E1,-3.505111217E0,1.680729628E0
2.828247268E0,1.096334839E1,-3.035847664E0,1.362300754E0
2.838247268E0,1.021635818E1,-2.631227732E0,1.154005170E0
2.848247268E0,9.634567261E0,-2.300827742E0,1.022324085E0
2.858247268E0,9.170091629E0,-2.020706177E0,9.169792533E-1
2.868247268E0,8.753500938E0,-1.771709204E0,8.116343617E-1
2.878247268E0,8.358457565E0,-1.584961534E0,6.584054828E-1
2.888247268E0,8.011298180E0,-1.460463047E0,5.075707436E-1
2.898247168E0,7.719205379E0,-1.426944256E0,3.567360640E-1
2.908247201E0,7.491756439E0,-1.438915253E0,2.370259613E-1
2.918247201E0,7.350498676E0,-1.472434044E0,1.915361285E-1
2.928247201E0,7.269095421E0,-1.491587639E0,1.963245422E-1
2.938247201E0,7.307403088E0,-1.482010841E0,2.729389966E-1
2.948247201E0,7.395988464E0,-1.458068848E0,3.711012602E-1
2.958247201E0,7.568370819E0,-1.410184860E0,5.267243981E-1
2.968247201E0,7.786243439E0,-1.340752959E0,7.038952708E-1
2.978247201E0,8.028057098E0,-1.268926859E0,8.858546019E-1
2.988247201E0,8.255506516E0,-1.218648672E0,1.058237195E0
2.998247201E0,8.444648743E0,-1.218648672E0,1.228225470E0
3.008247201E0,8.583512306E0,-1.264138460E0,1.374271750E0
3.018247201E0,8.693645477E0,-1.386242747E0,1.522712231E0
3.028247234E0,8.818143845E0,-1.551442742E0,1.661576033E0
3.038247234E0,9.067141533E0,-1.778891921E0,1.853112102E0
3.048247234E0,9.361627579E0,-1.996764183E0,2.063801765E0
3.058247234E0,9.792584419E0,-2.245761156E0,2.293645144E0
3.068247234E0,1.020438671E1,-2.477998734E0,2.499546528E0
3.078247200E0,1.059703636E1,-2.681505919E0,2.681505919E0
3.088248100E0,1.093701267E1,-2.856282711E0,2.815581083E0
3.098248100E0,1.120995140E1,-2.997540474E0,2.865859509E0
3.108248100E0,1.144218922E1,-3.141192675E0,2.822763920E0
3.118248100E0,1.173188782E1,-3.447650433E0,2.679111719E0
3.128248100E0,1.207665253E1,-3.885789394E0,2.516305923E0
3.138248100E0,1.255788708E1,-4.515464306E0,2.379836559E0
3.148248100E0,1.303433323E1,-5.138256073E0,2.322375536E0
3.158248100E0,1.350359726E1,-5.681739807E0,2.384624958E0
3.168248100E0,1.394173622E1,-6.074388981E0,2.489969730E0
3.178248100E0,1.434396172E1,-6.241982937E0,2.683900118E0
3.188248100E0,1.464802551E1,-6.299443722E0,2.858676910E0
3.198248100E0,1.484943771E1,-6.246771336E0,2.990357876E0
3.208248066E0,1.497632980E1,-6.230011940E0,3.059789658E0
3.218248066E0,1.503618526E1,-6.354510784E0,3.002328873E0
3.228248066E0,1.503618526E1,-6.617872715E0,2.851494312E0
3.238248066E0,1.505294418E1,-7.060800076E0,2.600103140E0
3.248248066E0,1.516786671E1,-7.618649006E0,2.319981337E0
3.258248066E0,1.537616158E1,-8.226776123E0,2.066195965E0
3.268248066E0,1.551981354E1,-8.727164268E0,1.872265697E0
3.278248099E0,1.552460194E1,-9.093477249E0,1.723825216E0
3.288248099E0,1.542883396E1,-9.359233856E0,1.608903527E0
3.298248099E0,1.507209778E1,-9.483732224E0,1.525106430E0
3.308248099E0,1.458577633E1,-9.545981407E0,1.419761658E0
3.318248099E0,1.394652462E1,-9.562741280E0,1.374271750E0
3.328248065E0,1.323784065E1,-9.452607155E0,1.304839969E0
3.338248065E0,1.245972538E1,-9.318531990E0,1.199495077E0
3.348248065E0,1.169358063E1,-9.136572838E0,1.082179189E0
3.358248065E0,1.100165653E1,-8.983344078E0,9.504981041E-1
3.368248065E0,1.043183613E1,-8.842085838E0,8.092401624E-1
3.378248065E0,9.885957718E0,-8.657732964E0,6.368576288E-1
3.388248065E0,9.342473984E0,-8.487744331E0,4.501099288E-1
3.398248065E0,8.753500938E0,-8.303390503E0,2.585737705E-1
3.408248065E0,8.212410927E0,-8.121431351E0,1.316810995E-1
3.418248065E0,7.659350395E0,-7.891588211E0,9.097966552E-2
3.428248065E0,7.170933247E0,-7.673715591E0,8.619125932E-2
3.438248065E0,6.773495674E0,-7.489362240E0,9.816227108E-2
3.448248065E0,6.481403351E0,-7.302614689E0,9.337386489E-2
3.458248065E0,6.239588737E0,-7.082347870E0,6.703764945E-2
3.468248065E0,6.040870190E0,-6.864475727E0,1.436521020E-2
3.478248065E0,5.909189224E0,-6.665756702E0,-3.591302410E-2
3.488248065E0,5.825392246E0,-6.505345345E0,-7.422025502E-2
3.498248065E0,5.775113583E0,-6.356904984E0,-9.337386489E-2
3.508248065E0,5.717652798E0,-6.234800339E0,-1.149216816E-1
3.518248065E0,5.657797813E0,-6.131849766E0,-1.173158810E-1
3.528248065E0,5.588366032E0,-6.033687592E0,-1.244984865E-1
3.538248065E0,5.483021259E0,-5.918766022E0,-1.412578970E-1
3.548248065E0,5.396830082E0,-5.799055576E0,-1.699883193E-1
3.558248065E0,5.339369297E0,-5.633855820E0,-2.418143749E-1
3.568248065E0,5.279513836E0,-5.437531471E0,-3.471592367E-1
3.578248031E0,5.212476254E0,-5.226841450E0,-4.908113480E-1
3.588248031E0,5.114314079E0,-5.023334503E0,-6.560112834E-1
3.598248031E0,4.985027313E0,-4.841075897E0,-8.643068075E-1
3.608248031E0,4.850652695E0,-4.709394932E0,-1.072602391E0
3.618248031E0,4.735731125E0,-4.616020679E0,-1.278503656E0
3.628248031E0,4.642356873E0,-4.568136692E0,-1.453280449E0
3.638248031E0,4.606443882E0,-4.582501888E0,-1.611297727E0
3.648248031E0,4.601655483E0,-4.599261284E0,-1.742978811E0
3.658248031E0,4.716577530E0,-4.575319290E0,-1.807622313E0
3.668248031E0,4.893748283E0,-4.539406300E0,-1.821987510E0
3.678248031E0,5.229235649E0,-4.534617901E0,-1.807622313E0
3.688247631E0,5.736806393E0,-4.630385876E0,-1.800439715E0
3.698247631E0,6.421548367E0,-4.908412933E0,-1.807622313E0
3.708247631E0,7.123049259E0,-5.265148640E0,-1.793257117E0
3.718247631E0,7.865252018E0,-5.763142586E0,-1.716642618E0
3.728247631E0,8.514080048E0,-6.320991993E0,-1.577778935E0
3.738247631E0,9.033622742E0,-6.859687328E0,-1.271321058E0
3.748247631E0,9.478943825E0,-7.223605633E0,-8.858546019E-1
3.758247631E0,9.938630104E0,-7.376834869E0,-4.405331016E-1
3.768247631E0,1.041028786E1,-7.470208645E0,-3.591302410E-2
3.778247664E0,1.099926186E1,-7.503727436E0,3.495534360E-1
3.788247697E0,1.154514027E1,-7.563582420E0,7.134721279E-1
3.798247297E0,1.205510521E1,-7.771877766E0,1.084573388E0
3.808247297E0,1.254352188E1,-8.138191223E0,1.484405041E0
3.818247297E0,1.305348682E1,-8.650549889E0,1.996764183E0
3.828247297E0,1.351796246E1,-9.215581894E0,2.647987127E0
3.838247897E0,1.393934155E1,-9.780612946E0,3.313575268E0
3.848247897E0,1.431283665E1,-1.017565632E1,3.892971992E0
